#EXPORTTYPE:DATA SINGLE
#FILE:AP52DE55 PURE 7,5K.ngb-sd7
#FORMAT:NETZSCH5
#FTYPE:ANSI
#IDENTITY:AP52DE55 PURE 7,5K/min
#DECIMAL:COMMA
#SEPARATOR:SEMICOLON
#MTYPE:DSC
#INSTRUMENT:NETZSCH DSC 204F1 Phoenix
#PROJECT:Gutkowski praca in¿
#DATE/TIME:08.01.2016 11:15
#CORR. FILE:
#TEMPCAL:TCALZERO.TMX
#SENSITIVITY:SENSZERO.EXX
#LABORATORY:206
#OPERATOR:MIC
#REMARK:
#SAMPLE:AP52DE55 PURE 7,5K/min
#SAMPLE MASS /mg:11,12
#MATERIAL:PU
#REFERENCE:correction
#REFERENCE MASS /mg:0
#TYPE OF CRUCIBLE:Pan Al, closed
#SAMPLE CRUCIBLE MASS /mg:0
#REFERENCE CRUCIBLE MASS /mg:39,35
#M.RANGE /µV:5000
#TAU-R:---
#CORR. CODE:000
#EXO:+1
#RANGE:30°C....250°C/-7,5....15,0K/min
#SEGMENT:S3/3
#SEG. 1:30°C/15,0(K/min)/250°C
#SEG. 2:250°C/00:05/250°C
#SEG. 3:250°C/7,5(K/min)/30°C

##Temp./°C;Time/min;DSC/(uV/mg);Sensit./(uV/mW);Segment
166,42559;30,81250;0,23621;1,00000;3
166,40053;30,81583;0,23627;1,00000;3
166,37547;30,81917;0,23633;1,00000;3
166,35047;30,82250;0,23618;1,00000;3
166,32547;30,82583;0,23617;1,00000;3
166,30059;30,82917;0,23616;1,00000;3
166,27565;30,83250;0,23601;1,00000;3
166,25065;30,83583;0,23600;1,00000;3
166,22571;30,83917;0,23606;1,00000;3
166,20076;30,84250;0,23605;1,00000;3
166,17571;30,84583;0,23597;1,00000;3
166,15082;30,84917;0,23596;1,00000;3
166,12588;30,85250;0,23595;1,00000;3
166,10094;30,85583;0,23593;1,00000;3
166,07594;30,85917;0,23585;1,00000;3
166,05100;30,86250;0,23605;1,00000;3
166,02600;30,86583;0,23611;1,00000;3
166,00100;30,86917;0,23610;1,00000;3
165,97612;30,87250;0,23622;1,00000;3
165,95123;30,87583;0,23621;1,00000;3
165,92623;30,87917;0,23641;1,00000;3
165,90129;30,88250;0,23653;1,00000;3
165,87629;30,88583;0,23659;1,00000;3
165,85129;30,88917;0,23665;1,00000;3
165,82629;30,89250;0,23670;1,00000;3
165,80129;30,89583;0,23697;1,00000;3
165,77629;30,89917;0,23709;1,00000;3
165,75147;30,90250;0,23722;1,00000;3
165,72647;30,90583;0,23728;1,00000;3
165,70147;30,90917;0,23740;1,00000;3
165,67653;30,91250;0,23753;1,00000;3
165,65159;30,91583;0,23759;1,00000;3
165,62659;30,91917;0,23778;1,00000;3
165,60170;30,92250;0,23798;1,00000;3
165,57671;30,92583;0,23810;1,00000;3
165,55171;30,92917;0,23823;1,00000;3
165,52665;30,93250;0,23815;1,00000;3
165,50165;30,93583;0,23814;1,00000;3
165,47665;30,93917;0,23806;1,00000;3
165,45165;30,94250;0,23798;1,00000;3
165,42665;30,94583;0,23790;1,00000;3
165,40165;30,94917;0,23796;1,00000;3
165,37659;30,95250;0,23802;1,00000;3
165,35165;30,95583;0,23807;1,00000;3
165,32653;30,95917;0,23806;1,00000;3
165,30147;30,96250;0,23798;1,00000;3
165,27653;30,96583;0,23797;1,00000;3
165,25147;30,96917;0,23803;1,00000;3
165,22641;30,97250;0,23816;1,00000;3
165,20135;30,97583;0,23849;1,00000;3
165,17629;30,97917;0,23861;1,00000;3
165,15129;30,98250;0,23874;1,00000;3
165,12623;30,98583;0,23887;1,00000;3
165,10123;30,98917;0,23899;1,00000;3
165,07623;30,99250;0,23912;1,00000;3
165,05118;30,99583;0,23925;1,00000;3
165,02606;30,99917;0,23930;1,00000;3
165,00100;31,00250;0,23936;1,00000;3
164,97606;31,00583;0,23935;1,00000;3
164,95106;31,00917;0,23941;1,00000;3
164,92600;31,01250;0,23946;1,00000;3
164,90106;31,01583;0,23952;1,00000;3
164,87612;31,01917;0,23958;1,00000;3
164,85106;31,02250;0,23964;1,00000;3
164,82600;31,02583;0,23963;1,00000;3
164,80100;31,02917;0,23975;1,00000;3
164,77606;31,03250;0,23995;1,00000;3
164,75106;31,03583;0,24021;1,00000;3
164,72612;31,03917;0,24041;1,00000;3
164,70112;31,04250;0,24053;1,00000;3
164,67612;31,04583;0,24066;1,00000;3
164,65118;31,04917;0,24078;1,00000;3
164,62617;31,05250;0,24091;1,00000;3
164,60129;31,05583;0,24104;1,00000;3
164,57641;31,05917;0,24116;1,00000;3
164,55141;31,06250;0,24129;1,00000;3
164,52647;31,06583;0,24142;1,00000;3
164,50147;31,06917;0,24147;1,00000;3
164,47641;31,07250;0,24153;1,00000;3
164,45141;31,07583;0,24166;1,00000;3
164,42647;31,07917;0,24171;1,00000;3
164,40159;31,08250;0,24170;1,00000;3
164,37659;31,08583;0,24162;1,00000;3
164,35153;31,08917;0,24161;1,00000;3
164,32653;31,09250;0,24188;1,00000;3
164,30141;31,09583;0,24207;1,00000;3
164,27647;31,09917;0,24213;1,00000;3
164,25141;31,10250;0,24225;1,00000;3
164,22629;31,10583;0,24231;1,00000;3
164,20123;31,10917;0,24230;1,00000;3
164,17618;31,11250;0,24243;1,00000;3
164,15106;31,11583;0,24248;1,00000;3
164,12594;31,11917;0,24254;1,00000;3
164,10088;31,12250;0,24281;1,00000;3
164,07582;31,12583;0,24300;1,00000;3
164,05077;31,12917;0,24306;1,00000;3
164,02571;31,13250;0,24312;1,00000;3
164,00059;31,13583;0,24345;1,00000;3
163,97547;31,13917;0,24378;1,00000;3
163,95041;31,14250;0,24391;1,00000;3
163,92541;31,14583;0,24403;1,00000;3
163,90035;31,14917;0,24423;1,00000;3
163,87529;31,15250;0,24428;1,00000;3
163,85006;31,15583;0,24441;1,00000;3
163,82500;31,15917;0,24447;1,00000;3
163,79994;31,16250;0,24439;1,00000;3
163,77494;31,16583;0,24438;1,00000;3
163,74982;31,16917;0,24437;1,00000;3
163,72471;31,17250;0,24442;1,00000;3
163,69965;31,17583;0,24476;1,00000;3
163,67459;31,17917;0,24481;1,00000;3
163,64959;31,18250;0,24487;1,00000;3
163,62453;31,18583;0,24493;1,00000;3
163,59941;31,18917;0,24512;1,00000;3
163,57435;31,19250;0,24532;1,00000;3
163,54929;31,19583;0,24544;1,00000;3
163,52423;31,19917;0,24571;1,00000;3
163,49912;31,20250;0,24597;1,00000;3
163,47406;31,20583;0,24617;1,00000;3
163,44906;31,20917;0,24629;1,00000;3
163,42406;31,21250;0,24642;1,00000;3
163,39900;31,21583;0,24661;1,00000;3
163,37388;31,21917;0,24667;1,00000;3
163,34876;31,22250;0,24687;1,00000;3
163,32371;31,22583;0,24706;1,00000;3
163,29865;31,22917;0,24725;1,00000;3
163,27353;31,23250;0,24745;1,00000;3
163,24829;31,23583;0,24764;1,00000;3
163,22312;31,23917;0,24804;1,00000;3
163,19800;31,24250;0,24824;1,00000;3
163,17288;31,24583;0,24843;1,00000;3
163,14777;31,24917;0,24849;1,00000;3
163,12271;31,25250;0,24848;1,00000;3
163,09765;31,25583;0,24854;1,00000;3
163,07265;31,25917;0,24860;1,00000;3
163,04753;31,26250;0,24879;1,00000;3
163,02241;31,26583;0,24912;1,00000;3
162,99741;31,26917;0,24932;1,00000;3
162,97235;31,27250;0,24951;1,00000;3
162,94735;31,27583;0,24971;1,00000;3
162,92230;31,27917;0,24997;1,00000;3
162,89724;31,28250;0,25003;1,00000;3
162,87224;31,28583;0,25015;1,00000;3
162,84718;31,28917;0,25042;1,00000;3
162,82230;31,29250;0,25075;1,00000;3
162,79730;31,29583;0,25101;1,00000;3
162,77230;31,29917;0,25114;1,00000;3
162,74730;31,30250;0,25120;1,00000;3
162,72230;31,30583;0,25132;1,00000;3
162,69724;31,30917;0,25145;1,00000;3
162,67224;31,31250;0,25151;1,00000;3
162,64718;31,31583;0,25156;1,00000;3
162,62212;31,31917;0,25176;1,00000;3
162,59706;31,32250;0,25195;1,00000;3
162,57206;31,32583;0,25222;1,00000;3
162,54706;31,32917;0,25248;1,00000;3
162,52206;31,33250;0,25268;1,00000;3
162,49706;31,33583;0,25301;1,00000;3
162,47206;31,33917;0,25334;1,00000;3
162,44706;31,34250;0,25360;1,00000;3
162,42212;31,34583;0,25387;1,00000;3
162,39706;31,34917;0,25399;1,00000;3
162,37212;31,35250;0,25398;1,00000;3
162,34712;31,35583;0,25438;1,00000;3
162,32218;31,35917;0,25465;1,00000;3
162,29718;31,36250;0,25477;1,00000;3
162,27218;31,36583;0,25483;1,00000;3
162,24712;31,36917;0,25475;1,00000;3
162,22212;31,37250;0,25495;1,00000;3
162,19718;31,37583;0,25521;1,00000;3
162,17224;31,37917;0,25520;1,00000;3
162,14718;31,38250;0,25519;1,00000;3
162,12224;31,38583;0,25518;1,00000;3
162,09724;31,38917;0,25530;1,00000;3
162,07224;31,39250;0,25557;1,00000;3
162,04718;31,39583;0,25590;1,00000;3
162,02206;31,39917;0,25609;1,00000;3
161,99700;31,40250;0,25629;1,00000;3
161,97194;31,40583;0,25655;1,00000;3
161,94682;31,40917;0,25668;1,00000;3
161,92176;31,41250;0,25694;1,00000;3
161,89671;31,41583;0,25713;1,00000;3
161,87171;31,41917;0,25733;1,00000;3
161,84665;31,42250;0,25746;1,00000;3
161,82165;31,42583;0,25751;1,00000;3
161,79665;31,42917;0,25764;1,00000;3
161,77159;31,43250;0,25790;1,00000;3
161,74659;31,43583;0,25796;1,00000;3
161,72153;31,43917;0,25802;1,00000;3
161,69647;31,44250;0,25821;1,00000;3
161,67147;31,44583;0,25834;1,00000;3
161,64647;31,44917;0,25853;1,00000;3
161,62153;31,45250;0,25873;1,00000;3
161,59659;31,45583;0,25892;1,00000;3
161,57165;31,45917;0,25912;1,00000;3
161,54670;31,46250;0,25918;1,00000;3
161,52188;31,46583;0,25916;1,00000;3
161,49688;31,46917;0,25915;1,00000;3
161,47188;31,47250;0,25921;1,00000;3
161,44688;31,47583;0,25934;1,00000;3
161,42200;31,47917;0,25981;1,00000;3
161,39706;31,48250;0,26021;1,00000;3
161,37212;31,48583;0,26040;1,00000;3
161,34724;31,48917;0,26060;1,00000;3
161,32224;31,49250;0,26066;1,00000;3
161,29729;31,49583;0,26071;1,00000;3
161,27229;31,49917;0,26091;1,00000;3
161,24735;31,50250;0,26103;1,00000;3
161,22241;31,50583;0,26116;1,00000;3
161,19741;31,50917;0,26122;1,00000;3
161,17241;31,51250;0,26128;1,00000;3
161,14747;31,51583;0,26126;1,00000;3
161,12247;31,51917;0,26146;1,00000;3
161,09741;31,52250;0,26158;1,00000;3
161,07247;31,52583;0,26171;1,00000;3
161,04759;31,52917;0,26184;1,00000;3
161,02271;31,53250;0,26203;1,00000;3
160,99770;31,53583;0,26230;1,00000;3
160,97265;31,53917;0,26249;1,00000;3
160,94765;31,54250;0,26282;1,00000;3
160,92265;31,54583;0,26309;1,00000;3
160,89771;31,54917;0,26349;1,00000;3
160,87277;31,55250;0,26382;1,00000;3
160,84782;31,55583;0,26408;1,00000;3
160,82276;31,55917;0,26428;1,00000;3
160,79782;31,56250;0,26454;1,00000;3
160,77282;31,56583;0,26473;1,00000;3
160,74782;31,56917;0,26486;1,00000;3
160,72276;31,57250;0,26478;1,00000;3
160,69782;31,57583;0,26477;1,00000;3
160,67282;31,57917;0,26483;1,00000;3
160,64788;31,58250;0,26489;1,00000;3
160,62277;31,58583;0,26501;1,00000;3
160,59771;31,58917;0,26507;1,00000;3
160,57271;31,59250;0,26568;1,00000;3
160,54777;31,59583;0,26587;1,00000;3
160,52277;31,59917;0,26600;1,00000;3
160,49777;31,60250;0,26612;1,00000;3
160,47271;31,60583;0,26646;1,00000;3
160,44776;31,60917;0,26665;1,00000;3
160,42277;31,61250;0,26678;1,00000;3
160,39782;31,61583;0,26683;1,00000;3
160,37271;31,61917;0,26696;1,00000;3
160,34771;31,62250;0,26716;1,00000;3
160,32271;31,62583;0,26728;1,00000;3
160,29771;31,62917;0,26741;1,00000;3
160,27271;31,63250;0,26753;1,00000;3
160,24771;31,63583;0,26745;1,00000;3
160,22271;31,63917;0,26751;1,00000;3
160,19776;31,64250;0,26798;1,00000;3
160,17277;31,64583;0,26811;1,00000;3
160,14777;31,64917;0,26844;1,00000;3
160,12277;31,65250;0,26870;1,00000;3
160,09776;31,65583;0,26883;1,00000;3
160,07271;31,65917;0,26895;1,00000;3
160,04771;31,66250;0,26901;1,00000;3
160,02259;31,66583;0,26921;1,00000;3
159,99747;31,66917;0,26933;1,00000;3
159,97241;31,67250;0,26960;1,00000;3
159,94741;31,67583;0,27007;1,00000;3
159,92241;31,67917;0,27060;1,00000;3
159,89741;31,68250;0,27087;1,00000;3
159,87241;31,68583;0,27106;1,00000;3
159,84747;31,68917;0,27146;1,00000;3
159,82241;31,69250;0,27173;1,00000;3
159,79735;31,69583;0,27171;1,00000;3
159,77235;31,69917;0,27191;1,00000;3
159,74735;31,70250;0,27204;1,00000;3
159,72235;31,70583;0,27223;1,00000;3
159,69741;31,70917;0,27236;1,00000;3
159,67247;31,71250;0,27235;1,00000;3
159,64753;31,71583;0,27220;1,00000;3
159,62265;31,71917;0,27226;1,00000;3
159,59776;31,72250;0,27224;1,00000;3
159,57294;31,72583;0,27230;1,00000;3
159,54806;31,72917;0,27257;1,00000;3
159,52312;31,73250;0,27297;1,00000;3
159,49823;31,73583;0,27323;1,00000;3
159,47329;31,73917;0,27349;1,00000;3
159,44835;31,74250;0,27376;1,00000;3
159,42335;31,74583;0,27395;1,00000;3
159,39841;31,74917;0,27422;1,00000;3
159,37347;31,75250;0,27455;1,00000;3
159,34859;31,75583;0,27495;1,00000;3
159,32364;31,75917;0,27528;1,00000;3
159,29870;31,76250;0,27554;1,00000;3
159,27376;31,76583;0,27588;1,00000;3
159,24882;31,76917;0,27614;1,00000;3
159,22388;31,77250;0,27633;1,00000;3
159,19888;31,77583;0,27646;1,00000;3
159,17388;31,77917;0,27645;1,00000;3
159,14894;31,78250;0,27644;1,00000;3
159,12388;31,78583;0,27636;1,00000;3
159,09888;31,78917;0,27635;1,00000;3
159,07382;31,79250;0,27668;1,00000;3
159,04876;31,79583;0,27708;1,00000;3
159,02382;31,79917;0,27734;1,00000;3
158,99876;31,80250;0,27809;1,00000;3
158,97371;31,80583;0,27849;1,00000;3
158,94876;31,80917;0,27875;1,00000;3
158,92371;31,81250;0,27888;1,00000;3
158,89876;31,81583;0,27893;1,00000;3
158,87371;31,81917;0,27927;1,00000;3
158,84871;31,82250;0,27953;1,00000;3
158,82365;31,82583;0,27973;1,00000;3
158,79865;31,82917;0,27992;1,00000;3
158,77359;31,83250;0,28011;1,00000;3
158,74859;31,83583;0,28017;1,00000;3
158,72353;31,83917;0,28037;1,00000;3
158,69859;31,84250;0,28063;1,00000;3
158,67365;31,84583;0,28096;1,00000;3
158,64865;31,84917;0,28116;1,00000;3
158,62370;31,85250;0,28135;1,00000;3
158,59865;31,85583;0,28148;1,00000;3
158,57370;31,85917;0,28174;1,00000;3
158,54882;31,86250;0,28201;1,00000;3
158,52388;31,86583;0,28227;1,00000;3
158,49888;31,86917;0,28253;1,00000;3
158,47388;31,87250;0,28286;1,00000;3
158,44888;31,87583;0,28306;1,00000;3
158,42376;31,87917;0,28325;1,00000;3
158,39870;31,88250;0,28352;1,00000;3
158,37370;31,88583;0,28378;1,00000;3
158,34876;31,88917;0,28404;1,00000;3
158,32370;31,89250;0,28424;1,00000;3
158,29876;31,89583;0,28443;1,00000;3
158,27382;31,89917;0,28477;1,00000;3
158,24882;31,90250;0,28530;1,00000;3
158,22388;31,90583;0,28577;1,00000;3
158,19894;31,90917;0,28631;1,00000;3
158,17400;31,91250;0,28671;1,00000;3
158,14900;31,91583;0,28697;1,00000;3
158,12400;31,91917;0,28724;1,00000;3
158,09894;31,92250;0,28730;1,00000;3
158,07388;31,92583;0,28715;1,00000;3
158,04877;31,92917;0,28714;1,00000;3
158,02382;31,93250;0,28754;1,00000;3
157,99888;31,93583;0,28808;1,00000;3
157,97388;31,93917;0,28861;1,00000;3
157,94882;31,94250;0,28915;1,00000;3
157,92382;31,94583;0,28935;1,00000;3
157,89888;31,94917;0,28954;1,00000;3
157,87376;31,95250;0,28994;1,00000;3
157,84871;31,95583;0,29027;1,00000;3
157,82371;31,95917;0,29067;1,00000;3
157,79877;31,96250;0,29059;1,00000;3
157,77377;31,96583;0,29072;1,00000;3
157,74877;31,96917;0,29119;1,00000;3
157,72388;31,97250;0,29173;1,00000;3
157,69888;31,97583;0,29213;1,00000;3
157,67388;31,97917;0,29246;1,00000;3
157,64900;31,98250;0,29279;1,00000;3
157,62412;31,98583;0,29264;1,00000;3
157,59912;31,98917;0,29256;1,00000;3
157,57418;31,99250;0,29276;1,00000;3
157,54929;31,99583;0,29378;1,00000;3
157,52441;31,99917;0,29466;1,00000;3
157,49947;32,00250;0,29499;1,00000;3
157,47453;32,00583;0,29498;1,00000;3
157,44959;32,00917;0,29476;1,00000;3
157,42459;32,01250;0,29475;1,00000;3
157,39971;32,01583;0,29501;1,00000;3
157,37465;32,01917;0,29562;1,00000;3
157,34970;32,02250;0,29623;1,00000;3
157,32482;32,02583;0,29649;1,00000;3
157,29976;32,02917;0,29675;1,00000;3
157,27482;32,03250;0,29729;1,00000;3
157,24994;32,03583;0,29769;1,00000;3
157,22494;32,03917;0,29789;1,00000;3
157,19994;32,04250;0,29815;1,00000;3
157,17506;32,04583;0,29869;1,00000;3
157,15012;32,04917;0,29923;1,00000;3
157,12512;32,05250;0,29977;1,00000;3
157,10018;32,05583;0,30003;1,00000;3
157,07518;32,05917;0,30022;1,00000;3
157,05018;32,06250;0,30056;1,00000;3
157,02518;32,06583;0,30096;1,00000;3
157,00029;32,06917;0,30122;1,00000;3
156,97523;32,07250;0,30162;1,00000;3
156,95029;32,07583;0,30188;1,00000;3
156,92529;32,07917;0,30228;1,00000;3
156,90018;32,08250;0,30269;1,00000;3
156,87512;32,08583;0,30315;1,00000;3
156,85012;32,08917;0,30349;1,00000;3
156,82506;32,09250;0,30389;1,00000;3
156,80012;32,09583;0,30422;1,00000;3
156,77518;32,09917;0,30462;1,00000;3
156,75012;32,10250;0,30502;1,00000;3
156,72512;32,10583;0,30528;1,00000;3
156,70018;32,10917;0,30568;1,00000;3
156,67512;32,11250;0,30615;1,00000;3
156,65024;32,11583;0,30655;1,00000;3
156,62529;32,11917;0,30689;1,00000;3
156,60041;32,12250;0,30681;1,00000;3
156,57541;32,12583;0,30680;1,00000;3
156,55041;32,12917;0,30713;1,00000;3
156,52547;32,13250;0,30780;1,00000;3
156,50053;32,13583;0,30855;1,00000;3
156,47565;32,13917;0,30922;1,00000;3
156,45077;32,14250;0,30976;1,00000;3
156,42577;32,14583;0,31023;1,00000;3
156,40088;32,14917;0,31063;1,00000;3
156,37577;32,15250;0,31089;1,00000;3
156,35077;32,15583;0,31122;1,00000;3
156,32577;32,15917;0,31156;1,00000;3
156,30071;32,16250;0,31203;1,00000;3
156,27571;32,16583;0,31250;1,00000;3
156,25071;32,16917;0,31290;1,00000;3
156,22559;32,17250;0,31337;1,00000;3
156,20059;32,17583;0,31390;1,00000;3
156,17559;32,17917;0,31444;1,00000;3
156,15065;32,18250;0,31498;1,00000;3
156,12565;32,18583;0,31531;1,00000;3
156,10059;32,18917;0,31571;1,00000;3
156,07553;32,19250;0,31611;1,00000;3
156,05047;32,19583;0,31651;1,00000;3
156,02541;32,19917;0,31691;1,00000;3
156,00041;32,20250;0,31738;1,00000;3
155,97524;32,20583;0,31792;1,00000;3
155,95029;32,20917;0,31846;1,00000;3
155,92524;32,21250;0,31893;1,00000;3
155,90024;32,21583;0,31940;1,00000;3
155,87524;32,21917;0,31987;1,00000;3
155,85018;32,22250;0,32040;1,00000;3
155,82524;32,22583;0,32094;1,00000;3
155,80018;32,22917;0,32148;1,00000;3
155,77506;32,23250;0,32195;1,00000;3
155,75000;32,23583;0,32242;1,00000;3
155,72482;32,23917;0,32289;1,00000;3
155,69982;32,24250;0,32336;1,00000;3
155,67483;32,24583;0,32383;1,00000;3
155,64977;32,24917;0,32423;1,00000;3
155,62477;32,25250;0,32463;1,00000;3
155,59983;32,25583;0,32510;1,00000;3
155,57483;32,25917;0,32570;1,00000;3
155,54983;32,26250;0,32624;1,00000;3
155,52488;32,26583;0,32678;1,00000;3
155,49988;32,26917;0,32725;1,00000;3
155,47488;32,27250;0,32772;1,00000;3
155,44988;32,27583;0,32832;1,00000;3
155,42488;32,27917;0,32879;1,00000;3
155,39983;32,28250;0,32933;1,00000;3
155,37488;32,28583;0,32994;1,00000;3
155,35000;32,28917;0,33061;1,00000;3
155,32506;32,29250;0,33122;1,00000;3
155,30006;32,29583;0,33169;1,00000;3
155,27512;32,29917;0,33223;1,00000;3
155,25018;32,30250;0,33270;1,00000;3
155,22524;32,30583;0,33330;1,00000;3
155,20018;32,30917;0,33391;1,00000;3
155,17518;32,31250;0,33465;1,00000;3
155,15018;32,31583;0,33546;1,00000;3
155,12524;32,31917;0,33621;1,00000;3
155,10018;32,32250;0,33688;1,00000;3
155,07523;32,32583;0,33749;1,00000;3
155,05029;32,32917;0,33810;1,00000;3
155,02535;32,33250;0,33843;1,00000;3
155,00029;32,33583;0,33855;1,00000;3
154,97535;32,33917;0,33889;1,00000;3
154,95035;32,34250;0,33936;1,00000;3
154,92535;32,34583;0,34024;1,00000;3
154,90035;32,34917;0,34105;1,00000;3
154,87541;32,35250;0,34172;1,00000;3
154,85041;32,35583;0,34233;1,00000;3
154,82535;32,35917;0,34301;1,00000;3
154,80035;32,36250;0,34375;1,00000;3
154,77541;32,36583;0,34463;1,00000;3
154,75035;32,36917;0,34517;1,00000;3
154,72535;32,37250;0,34571;1,00000;3
154,70035;32,37583;0,34631;1,00000;3
154,67535;32,37917;0,34692;1,00000;3
154,65035;32,38250;0,34753;1,00000;3
154,62535;32,38583;0,34813;1,00000;3
154,60024;32,38917;0,34867;1,00000;3
154,57535;32,39250;0,34928;1,00000;3
154,55030;32,39583;0,34995;1,00000;3
154,52530;32,39917;0,35056;1,00000;3
154,50030;32,40250;0,35116;1,00000;3
154,47524;32,40583;0,35184;1,00000;3
154,45024;32,40917;0,35286;1,00000;3
154,42518;32,41250;0,35367;1,00000;3
154,40018;32,41583;0,35434;1,00000;3
154,37518;32,41917;0,35495;1,00000;3
154,35018;32,42250;0,35569;1,00000;3
154,32518;32,42583;0,35637;1,00000;3
154,30018;32,42917;0,35711;1,00000;3
154,27512;32,43250;0,35779;1,00000;3
154,25018;32,43583;0,35853;1,00000;3
154,22512;32,43917;0,35934;1,00000;3
154,20006;32,44250;0,36009;1,00000;3
154,17512;32,44583;0,36090;1,00000;3
154,15012;32,44917;0,36151;1,00000;3
154,12512;32,45250;0,36218;1,00000;3
154,10018;32,45583;0,36293;1,00000;3
154,07512;32,45917;0,36360;1,00000;3
154,05024;32,46250;0,36434;1,00000;3
154,02524;32,46583;0,36516;1,00000;3
154,00024;32,46917;0,36604;1,00000;3
153,97530;32,47250;0,36712;1,00000;3
153,95035;32,47583;0,36801;1,00000;3
153,92541;32,47917;0,36882;1,00000;3
153,90047;32,48250;0,36956;1,00000;3
153,87547;32,48583;0,37030;1,00000;3
153,85053;32,48917;0,37098;1,00000;3
153,82547;32,49250;0,37179;1,00000;3
153,80047;32,49583;0,37254;1,00000;3
153,77553;32,49917;0,37335;1,00000;3
153,75065;32,50250;0,37409;1,00000;3
153,72559;32,50583;0,37490;1,00000;3
153,70059;32,50917;0,37565;1,00000;3
153,67559;32,51250;0,37646;1,00000;3
153,65071;32,51583;0,37727;1,00000;3
153,62565;32,51917;0,37815;1,00000;3
153,60071;32,52250;0,37897;1,00000;3
153,57577;32,52583;0,37985;1,00000;3
153,55082;32,52917;0,38059;1,00000;3
153,52588;32,53250;0,38133;1,00000;3
153,50082;32,53583;0,38228;1,00000;3
153,47582;32,53917;0,38310;1,00000;3
153,45082;32,54250;0,38398;1,00000;3
153,42588;32,54583;0,38548;1,00000;3
153,40094;32,54917;0,38691;1,00000;3
153,37600;32,55250;0,38792;1,00000;3
153,35100;32,55583;0,38887;1,00000;3
153,32588;32,55917;0,38982;1,00000;3
153,30094;32,56250;0,39050;1,00000;3
153,27600;32,56583;0,39090;1,00000;3
153,25094;32,56917;0,39144;1,00000;3
153,22582;32,57250;0,39245;1,00000;3
153,20071;32,57583;0,39347;1,00000;3
153,17565;32,57917;0,39442;1,00000;3
153,15059;32,58250;0,39537;1,00000;3
153,12541;32,58583;0,39646;1,00000;3
153,10029;32,58917;0,39741;1,00000;3
153,07529;32,59250;0,39843;1,00000;3
153,05023;32,59583;0,39986;1,00000;3
153,02518;32,59917;0,40115;1,00000;3
153,00012;32,60250;0,40210;1,00000;3
152,97506;32,60583;0,40298;1,00000;3
152,95000;32,60917;0,40386;1,00000;3
152,92488;32,61250;0,40474;1,00000;3
152,89994;32,61583;0,40569;1,00000;3
152,87488;32,61917;0,40671;1,00000;3
152,84982;32,62250;0,40766;1,00000;3
152,82482;32,62583;0,40867;1,00000;3
152,79982;32,62917;0,40969;1,00000;3
152,77494;32,63250;0,41071;1,00000;3
152,74988;32,63583;0,41180;1,00000;3
152,72488;32,63917;0,41316;1,00000;3
152,70000;32,64250;0,41411;1,00000;3
152,67500;32,64583;0,41520;1,00000;3
152,65006;32,64917;0,41628;1,00000;3
152,62500;32,65250;0,41737;1,00000;3
152,60000;32,65583;0,41846;1,00000;3
152,57500;32,65917;0,41968;1,00000;3
152,55000;32,66250;0,42090;1,00000;3
152,52506;32,66583;0,42213;1,00000;3
152,50006;32,66917;0,42328;1,00000;3
152,47500;32,67250;0,42458;1,00000;3
152,45000;32,67583;0,42580;1,00000;3
152,42500;32,67917;0,42695;1,00000;3
152,40000;32,68250;0,42825;1,00000;3
152,37500;32,68583;0,42947;1,00000;3
152,34994;32,68917;0,43056;1,00000;3
152,32500;32,69250;0,43171;1,00000;3
152,30006;32,69583;0,43294;1,00000;3
152,27506;32,69917;0,43423;1,00000;3
152,25000;32,70250;0,43539;1,00000;3
152,22500;32,70583;0,43654;1,00000;3
152,20012;32,70917;0,43776;1,00000;3
152,17518;32,71250;0,43899;1,00000;3
152,15018;32,71583;0,44028;1,00000;3
152,12512;32,71917;0,44164;1,00000;3
152,10006;32,72250;0,44287;1,00000;3
152,07506;32,72583;0,44409;1,00000;3
152,05000;32,72917;0,44545;1,00000;3
152,02500;32,73250;0,44674;1,00000;3
151,99994;32,73583;0,44811;1,00000;3
151,97494;32,73917;0,44947;1,00000;3
151,94994;32,74250;0,45069;1,00000;3
151,92488;32,74583;0,45191;1,00000;3
151,89982;32,74917;0,45328;1,00000;3
151,87470;32,75250;0,45457;1,00000;3
151,84965;32,75583;0,45586;1,00000;3
151,82476;32,75917;0,45736;1,00000;3
151,79971;32,76250;0,45879;1,00000;3
151,77470;32,76583;0,46015;1,00000;3
151,74965;32,76917;0,46151;1,00000;3
151,72465;32,77250;0,46280;1,00000;3
151,69976;32,77583;0,46423;1,00000;3
151,67488;32,77917;0,46566;1,00000;3
151,65000;32,78250;0,46702;1,00000;3
151,62512;32,78583;0,46839;1,00000;3
151,60018;32,78917;0,46982;1,00000;3
151,57529;32,79250;0,47111;1,00000;3
151,55035;32,79583;0,47247;1,00000;3
151,52541;32,79917;0,47383;1,00000;3
151,50053;32,80250;0,47519;1,00000;3
151,47559;32,80583;0,47648;1,00000;3
151,45071;32,80917;0,47785;1,00000;3
151,42577;32,81250;0,47921;1,00000;3
151,40077;32,81583;0,48064;1,00000;3
151,37577;32,81917;0,48214;1,00000;3
151,35077;32,82250;0,48370;1,00000;3
151,32588;32,82583;0,48520;1,00000;3
151,30088;32,82917;0,48670;1,00000;3
151,27594;32,83250;0,48820;1,00000;3
151,25088;32,83583;0,48976;1,00000;3
151,22588;32,83917;0,49113;1,00000;3
151,20088;32,84250;0,49262;1,00000;3
151,17583;32,84583;0,49412;1,00000;3
151,15083;32,84917;0,49569;1,00000;3
151,12577;32,85250;0,49719;1,00000;3
151,10082;32,85583;0,49869;1,00000;3
151,07588;32,85917;0,50018;1,00000;3
151,05094;32,86250;0,50168;1,00000;3
151,02594;32,86583;0,50332;1,00000;3
151,00094;32,86917;0,50495;1,00000;3
150,97582;32,87250;0,50659;1,00000;3
150,95077;32,87583;0,50823;1,00000;3
150,92571;32,87917;0,50993;1,00000;3
150,90071;32,88250;0,51150;1,00000;3
150,87571;32,88583;0,51293;1,00000;3
150,85059;32,88917;0,51429;1,00000;3
150,82553;32,89250;0,51572;1,00000;3
150,80053;32,89583;0,51715;1,00000;3
150,77553;32,89917;0,51858;1,00000;3
150,75053;32,90250;0,52001;1,00000;3
150,72553;32,90583;0,52157;1,00000;3
150,70059;32,90917;0,52307;1,00000;3
150,67553;32,91250;0,52464;1,00000;3
150,65047;32,91583;0,52655;1,00000;3
150,62547;32,91917;0,52818;1,00000;3
150,60047;32,92250;0,52968;1,00000;3
150,57547;32,92583;0,53132;1,00000;3
150,55065;32,92917;0,53289;1,00000;3
150,52577;32,93250;0,53445;1,00000;3
150,50082;32,93583;0,53602;1,00000;3
150,47577;32,93917;0,53766;1,00000;3
150,45082;32,94250;0,53922;1,00000;3
150,42588;32,94583;0,54079;1,00000;3
150,40094;32,94917;0,54229;1,00000;3
150,37594;32,95250;0,54372;1,00000;3
150,35100;32,95583;0,54508;1,00000;3
150,32606;32,95917;0,54665;1,00000;3
150,30112;32,96250;0,54821;1,00000;3
150,27606;32,96583;0,54978;1,00000;3
150,25100;32,96917;0,55142;1,00000;3
150,22594;32,97250;0,55312;1,00000;3
150,20088;32,97583;0,55496;1,00000;3
150,17588;32,97917;0,55687;1,00000;3
150,15082;32,98250;0,55851;1,00000;3
150,12571;32,98583;0,56007;1,00000;3
150,10065;32,98917;0,56150;1,00000;3
150,07559;32,99250;0,56293;1,00000;3
150,05059;32,99583;0,56443;1,00000;3
150,02553;32,99917;0,56600;1,00000;3
150,00041;33,00250;0,56750;1,00000;3
149,97541;33,00583;0,56913;1,00000;3
149,95035;33,00917;0,57063;1,00000;3
149,92524;33,01250;0,57213;1,00000;3
149,90018;33,01583;0,57363;1,00000;3
149,87500;33,01917;0,57506;1,00000;3
149,85000;33,02250;0,57656;1,00000;3
149,82500;33,02583;0,57805;1,00000;3
149,80006;33,02917;0,57969;1,00000;3
149,77512;33,03250;0,58126;1,00000;3
149,75012;33,03583;0,58282;1,00000;3
149,72512;33,03917;0,58446;1,00000;3
149,70012;33,04250;0,58630;1,00000;3
149,67518;33,04583;0,58800;1,00000;3
149,65023;33,04917;0,58971;1,00000;3
149,62523;33,05250;0,59134;1,00000;3
149,60023;33,05583;0,59291;1,00000;3
149,57529;33,05917;0,59448;1,00000;3
149,55023;33,06250;0,59591;1,00000;3
149,52523;33,06583;0,59734;1,00000;3
149,50029;33,06917;0,59884;1,00000;3
149,47535;33,07250;0,60040;1,00000;3
149,45041;33,07583;0,60197;1,00000;3
149,42547;33,07917;0,60347;1,00000;3
149,40047;33,08250;0,60497;1,00000;3
149,37547;33,08583;0,60647;1,00000;3
149,35041;33,08917;0,60748;1,00000;3
149,32541;33,09250;0,60878;1,00000;3
149,30047;33,09583;0,61028;1,00000;3
149,27553;33,09917;0,61184;1,00000;3
149,25053;33,10250;0,61334;1,00000;3
149,22553;33,10583;0,61477;1,00000;3
149,20053;33,10917;0,61627;1,00000;3
149,17553;33,11250;0,61784;1,00000;3
149,15059;33,11583;0,61940;1,00000;3
149,12559;33,11917;0,62097;1,00000;3
149,10065;33,12250;0,62247;1,00000;3
149,07565;33,12583;0,62397;1,00000;3
149,05065;33,12917;0,62547;1,00000;3
149,02571;33,13250;0,62690;1,00000;3
149,00071;33,13583;0,62839;1,00000;3
148,97577;33,13917;0,62996;1,00000;3
148,95077;33,14250;0,63153;1,00000;3
148,92583;33,14583;0,63303;1,00000;3
148,90083;33,14917;0,63370;1,00000;3
148,87577;33,15250;0,63493;1,00000;3
148,85077;33,15583;0,63615;1,00000;3
148,82577;33,15917;0,63744;1,00000;3
148,80077;33,16250;0,63873;1,00000;3
148,77583;33,16583;0,64010;1,00000;3
148,75083;33,16917;0,64139;1,00000;3
148,72577;33,17250;0,64268;1,00000;3
148,70077;33,17583;0,64404;1,00000;3
148,67577;33,17917;0,64533;1,00000;3
148,65082;33,18250;0,64676;1,00000;3
148,62577;33,18583;0,64819;1,00000;3
148,60077;33,18917;0,64942;1,00000;3
148,57577;33,19250;0,65078;1,00000;3
148,55077;33,19583;0,65214;1,00000;3
148,52577;33,19917;0,65343;1,00000;3
148,50077;33,20250;0,65472;1,00000;3
148,47577;33,20583;0,65595;1,00000;3
148,45077;33,20917;0,65724;1,00000;3
148,42571;33,21250;0,65853;1,00000;3
148,40065;33,21583;0,65976;1,00000;3
148,37565;33,21917;0,66084;1,00000;3
148,35065;33,22250;0,66207;1,00000;3
148,32565;33,22583;0,66329;1,00000;3
148,30071;33,22917;0,66438;1,00000;3
148,27576;33,23250;0,66526;1,00000;3
148,25071;33,23583;0,66607;1,00000;3
148,22553;33,23917;0,66716;1,00000;3
148,20053;33,24250;0,66818;1,00000;3
148,17547;33,24583;0,66920;1,00000;3
148,15041;33,24917;0,67021;1,00000;3
148,12541;33,25250;0,67137;1,00000;3
148,10035;33,25583;0,67259;1,00000;3
148,07529;33,25917;0,67375;1,00000;3
148,05029;33,26250;0,67477;1,00000;3
148,02535;33,26583;0,67578;1,00000;3
148,00029;33,26917;0,67660;1,00000;3
147,97535;33,27250;0,67748;1,00000;3
147,95023;33,27583;0,67843;1,00000;3
147,92512;33,27917;0,67945;1,00000;3
147,90012;33,28250;0,68046;1,00000;3
147,87500;33,28583;0,68141;1,00000;3
147,84994;33,28917;0,68243;1,00000;3
147,82494;33,29250;0,68338;1,00000;3
147,80000;33,29583;0,68440;1,00000;3
147,77506;33,29917;0,68521;1,00000;3
147,75006;33,30250;0,68602;1,00000;3
147,72512;33,30583;0,68684;1,00000;3
147,70012;33,30917;0,68758;1,00000;3
147,67506;33,31250;0,68839;1,00000;3
147,65006;33,31583;0,68927;1,00000;3
147,62500;33,31917;0,69022;1,00000;3
147,59994;33,32250;0,69110;1,00000;3
147,57506;33,32583;0,69192;1,00000;3
147,55006;33,32917;0,69273;1,00000;3
147,52518;33,33250;0,69354;1,00000;3
147,50029;33,33583;0,69428;1,00000;3
147,47535;33,33917;0,69489;1,00000;3
147,45047;33,34250;0,69550;1,00000;3
147,42553;33,34583;0,69610;1,00000;3
147,40047;33,34917;0,69678;1,00000;3
147,37553;33,35250;0,69738;1,00000;3
147,35053;33,35583;0,69792;1,00000;3
147,32559;33,35917;0,69853;1,00000;3
147,30059;33,36250;0,69920;1,00000;3
147,27559;33,36583;0,69981;1,00000;3
147,25071;33,36917;0,70049;1,00000;3
147,22577;33,37250;0,70109;1,00000;3
147,20082;33,37583;0,70184;1,00000;3
147,17588;33,37917;0,70251;1,00000;3
147,15088;33,38250;0,70277;1,00000;3
147,12588;33,38583;0,70324;1,00000;3
147,10088;33,38917;0,70392;1,00000;3
147,07588;33,39250;0,70453;1,00000;3
147,05088;33,39583;0,70506;1,00000;3
147,02594;33,39917;0,70540;1,00000;3
147,00094;33,40250;0,70559;1,00000;3
146,97612;33,40583;0,70592;1,00000;3
146,95124;33,40917;0,70632;1,00000;3
146,92629;33,41250;0,70665;1,00000;3
146,90135;33,41583;0,70699;1,00000;3
146,87629;33,41917;0,70732;1,00000;3
146,85129;33,42250;0,70786;1,00000;3
146,82629;33,42583;0,70846;1,00000;3
146,80124;33,42917;0,70873;1,00000;3
146,77624;33,43250;0,70851;1,00000;3
146,75112;33,43583;0,70850;1,00000;3
146,72606;33,43917;0,70876;1,00000;3
146,70106;33,44250;0,70916;1,00000;3
146,67594;33,44583;0,70949;1,00000;3
146,65094;33,44917;0,71010;1,00000;3
146,62582;33,45250;0,71030;1,00000;3
146,60065;33,45583;0,71063;1,00000;3
146,57559;33,45917;0,71103;1,00000;3
146,55047;33,46250;0,71143;1,00000;3
146,52535;33,46583;0,71169;1,00000;3
146,50030;33,46917;0,71168;1,00000;3
146,47518;33,47250;0,71188;1,00000;3
146,45018;33,47583;0,71193;1,00000;3
146,42512;33,47917;0,71199;1,00000;3
146,40006;33,48250;0,71219;1,00000;3
146,37506;33,48583;0,71231;1,00000;3
146,34994;33,48917;0,71223;1,00000;3
146,32500;33,49250;0,71208;1,00000;3
146,29994;33,49583;0,71207;1,00000;3
146,27488;33,49917;0,71206;1,00000;3
146,24994;33,50250;0,71212;1,00000;3
146,22488;33,50583;0,71211;1,00000;3
146,19994;33,50917;0,71217;1,00000;3
146,17506;33,51250;0,71222;1,00000;3
146,15018;33,51583;0,71228;1,00000;3
146,12523;33,51917;0,71234;1,00000;3
146,10017;33,52250;0,71233;1,00000;3
146,07512;33,52583;0,71225;1,00000;3
146,05018;33,52917;0,71224;1,00000;3
146,02523;33,53250;0,71223;1,00000;3
146,00029;33,53583;0,71222;1,00000;3
145,97529;33,53917;0,71234;1,00000;3
145,95035;33,54250;0,71240;1,00000;3
145,92547;33,54583;0,71239;1,00000;3
145,90053;33,54917;0,71217;1,00000;3
145,87559;33,55250;0,71147;1,00000;3
145,85059;33,55583;0,71098;1,00000;3
145,82559;33,55917;0,71063;1,00000;3
145,80059;33,56250;0,71048;1,00000;3
145,77565;33,56583;0,71047;1,00000;3
145,75053;33,56917;0,71046;1,00000;3
145,72547;33,57250;0,71017;1,00000;3
145,70041;33,57583;0,70996;1,00000;3
145,67547;33,57917;0,70974;1,00000;3
145,65041;33,58250;0,70952;1,00000;3
145,62535;33,58583;0,70931;1,00000;3
145,60035;33,58917;0,70909;1,00000;3
145,57535;33,59250;0,70867;1,00000;3
145,55035;33,59583;0,70831;1,00000;3
145,52530;33,59917;0,70796;1,00000;3
145,50030;33,60250;0,70760;1,00000;3
145,47530;33,60583;0,70725;1,00000;3
145,45029;33,60917;0,70690;1,00000;3
145,42530;33,61250;0,70641;1,00000;3
145,40035;33,61583;0,70585;1,00000;3
145,37530;33,61917;0,70529;1,00000;3
145,35030;33,62250;0,70425;1,00000;3
145,32547;33,62583;0,70348;1,00000;3
145,30047;33,62917;0,70333;1,00000;3
145,27547;33,63250;0,70332;1,00000;3
145,25047;33,63583;0,70310;1,00000;3
145,22553;33,63917;0,70268;1,00000;3
145,20053;33,64250;0,70233;1,00000;3
145,17547;33,64583;0,70190;1,00000;3
145,15041;33,64917;0,70148;1,00000;3
145,12547;33,65250;0,70099;1,00000;3
145,10047;33,65583;0,70036;1,00000;3
145,07541;33,65917;0,69980;1,00000;3
145,05035;33,66250;0,69924;1,00000;3
145,02547;33,66583;0,69868;1,00000;3
145,00047;33,66917;0,69798;1,00000;3
144,97547;33,67250;0,69729;1,00000;3
144,95053;33,67583;0,69666;1,00000;3
144,92553;33,67917;0,69603;1,00000;3
144,90047;33,68250;0,69533;1,00000;3
144,87547;33,68583;0,69450;1,00000;3
144,85053;33,68917;0,69366;1,00000;3
144,82547;33,69250;0,69311;1,00000;3
144,80047;33,69583;0,69241;1,00000;3
144,77547;33,69917;0,69171;1,00000;3
144,75053;33,70250;0,69108;1,00000;3
144,72553;33,70583;0,69045;1,00000;3
144,70047;33,70917;0,68969;1,00000;3
144,67547;33,71250;0,68899;1,00000;3
144,65047;33,71583;0,68816;1,00000;3
144,62547;33,71917;0,68746;1,00000;3
144,60035;33,72250;0,68690;1,00000;3
144,57535;33,72583;0,68627;1,00000;3
144,55035;33,72917;0,68557;1,00000;3
144,52541;33,73250;0,68481;1,00000;3
144,50047;33,73583;0,68404;1,00000;3
144,47547;33,73917;0,68328;1,00000;3
144,45053;33,74250;0,68251;1,00000;3
144,42553;33,74583;0,68168;1,00000;3
144,40059;33,74917;0,68084;1,00000;3
144,37553;33,75250;0,67994;1,00000;3
144,35047;33,75583;0,67911;1,00000;3
144,32535;33,75917;0,67827;1,00000;3
144,30029;33,76250;0,67744;1,00000;3
144,27529;33,76583;0,67688;1,00000;3
144,25029;33,76917;0,67625;1,00000;3
144,22535;33,77250;0,67528;1,00000;3
144,20035;33,77583;0,67424;1,00000;3
144,17541;33,77917;0,67326;1,00000;3
144,15047;33,78250;0,67236;1,00000;3
144,12535;33,78583;0,67146;1,00000;3
144,10029;33,78917;0,67056;1,00000;3
144,07518;33,79250;0,66972;1,00000;3
144,05006;33,79583;0,66875;1,00000;3
144,02494;33,79917;0,66792;1,00000;3
143,99982;33,80250;0,66701;1,00000;3
143,97476;33,80583;0,66618;1,00000;3
143,94976;33,80917;0,66528;1,00000;3
143,92476;33,81250;0,66437;1,00000;3
143,89976;33,81583;0,66340;1,00000;3
143,87476;33,81917;0,66250;1,00000;3
143,84965;33,82250;0,66153;1,00000;3
143,82465;33,82583;0,66055;1,00000;3
143,79959;33,82917;0,65951;1,00000;3
143,77459;33,83250;0,65834;1,00000;3
143,74953;33,83583;0,65730;1,00000;3
143,72447;33,83917;0,65639;1,00000;3
143,69953;33,84250;0,65535;1,00000;3
143,67447;33,84583;0,65438;1,00000;3
143,64947;33,84917;0,65355;1,00000;3
143,62441;33,85250;0,65265;1,00000;3
143,59941;33,85583;0,65167;1,00000;3
143,57453;33,85917;0,65070;1,00000;3
143,54953;33,86250;0,64966;1,00000;3
143,52465;33,86583;0,64855;1,00000;3
143,49971;33,86917;0,64758;1,00000;3
143,47476;33,87250;0,64647;1,00000;3
143,44982;33,87583;0,64530;1,00000;3
143,42500;33,87917;0,64405;1,00000;3
143,40000;33,88250;0,64280;1,00000;3
143,37500;33,88583;0,64156;1,00000;3
143,35000;33,88917;0,64038;1,00000;3
143,32506;33,89250;0,63934;1,00000;3
143,30006;33,89583;0,63830;1,00000;3
143,27500;33,89917;0,63760;1,00000;3
143,25000;33,90250;0,63697;1,00000;3
143,22500;33,90583;0,63593;1,00000;3
143,20006;33,90917;0,63483;1,00000;3
143,17506;33,91250;0,63372;1,00000;3
143,15000;33,91583;0,63268;1,00000;3
143,12494;33,91917;0,63136;1,00000;3
143,09982;33,92250;0,63005;1,00000;3
143,07488;33,92583;0,62887;1,00000;3
143,04988;33,92917;0,62762;1,00000;3
143,02488;33,93250;0,62645;1,00000;3
142,99976;33,93583;0,62527;1,00000;3
142,97476;33,93917;0,62409;1,00000;3
142,94971;33,94250;0,62291;1,00000;3
142,92465;33,94583;0,62187;1,00000;3
142,89959;33,94917;0,62076;1,00000;3
142,87459;33,95250;0,61966;1,00000;3
142,84965;33,95583;0,61855;1,00000;3
142,82470;33,95917;0,61744;1,00000;3
142,79971;33,96250;0,61626;1,00000;3
142,77476;33,96583;0,61502;1,00000;3
142,74970;33,96917;0,61377;1,00000;3
142,72470;33,97250;0,61266;1,00000;3
142,69970;33,97583;0,61148;1,00000;3
142,67470;33,97917;0,61031;1,00000;3
142,64964;33,98250;0,60906;1,00000;3
142,62464;33,98583;0,60795;1,00000;3
142,59964;33,98917;0,60677;1,00000;3
142,57476;33,99250;0,60567;1,00000;3
142,54982;33,99583;0,60449;1,00000;3
142,52494;33,99917;0,60338;1,00000;3
142,50000;34,00250;0,60227;1,00000;3
142,47494;34,00583;0,60109;1,00000;3
142,44994;34,00917;0,59992;1,00000;3
142,42488;34,01250;0,59881;1,00000;3
142,39982;34,01583;0,59777;1,00000;3
142,37482;34,01917;0,59707;1,00000;3
142,34976;34,02250;0,59596;1,00000;3
142,32482;34,02583;0,59465;1,00000;3
142,29977;34,02917;0,59347;1,00000;3
142,27482;34,03250;0,59215;1,00000;3
142,24982;34,03583;0,59084;1,00000;3
142,22471;34,03917;0,58946;1,00000;3
142,19965;34,04250;0,58814;1,00000;3
142,17459;34,04583;0,58676;1,00000;3
142,14953;34,04917;0,58551;1,00000;3
142,12435;34,05250;0,58434;1,00000;3
142,09924;34,05583;0,58336;1,00000;3
142,07412;34,05917;0,58232;1,00000;3
142,04906;34,06250;0,58108;1,00000;3
142,02400;34,06583;0,57983;1,00000;3
141,99894;34,06917;0,57852;1,00000;3
141,97388;34,07250;0,57720;1,00000;3
141,94876;34,07583;0,57602;1,00000;3
141,92376;34,07917;0,57492;1,00000;3
141,89865;34,08250;0,57367;1,00000;3
141,87353;34,08583;0,57242;1,00000;3
141,84841;34,08917;0,57125;1,00000;3
141,82335;34,09250;0,57007;1,00000;3
141,79841;34,09583;0,56882;1,00000;3
141,77329;34,09917;0,56758;1,00000;3
141,74818;34,10250;0,56633;1,00000;3
141,72312;34,10583;0,56515;1,00000;3
141,69812;34,10917;0,56391;1,00000;3
141,67306;34,11250;0,56273;1,00000;3
141,64800;34,11583;0,56169;1,00000;3
141,62300;34,11917;0,56072;1,00000;3
141,59794;34,12250;0,55968;1,00000;3
141,57294;34,12583;0,55857;1,00000;3
141,54800;34,12917;0,55739;1,00000;3
141,52294;34,13250;0,55615;1,00000;3
141,49782;34,13583;0,55497;1,00000;3
141,47282;34,13917;0,55365;1,00000;3
141,44782;34,14250;0,55241;1,00000;3
141,42277;34,14583;0,55123;1,00000;3
141,39771;34,14917;0,55005;1,00000;3
141,37265;34,15250;0,54881;1,00000;3
141,34771;34,15583;0,54763;1,00000;3
141,32282;34,15917;0,54638;1,00000;3
141,29782;34,16250;0,54507;1,00000;3
141,27294;34,16583;0,54396;1,00000;3
141,24800;34,16917;0,54265;1,00000;3
141,22312;34,17250;0,54154;1,00000;3
141,19812;34,17583;0,54043;1,00000;3
141,17306;34,17917;0,53925;1,00000;3
141,14812;34,18250;0,53800;1,00000;3
141,12306;34,18583;0,53676;1,00000;3
141,09812;34,18917;0,53558;1,00000;3
141,07312;34,19250;0,53447;1,00000;3
141,04818;34,19583;0,53336;1,00000;3
141,02318;34,19917;0,53226;1,00000;3
140,99818;34,20250;0,53115;1,00000;3
140,97323;34,20583;0,53011;1,00000;3
140,94829;34,20917;0,52900;1,00000;3
140,92329;34,21250;0,52803;1,00000;3
140,89829;34,21583;0,52685;1,00000;3
140,87324;34,21917;0,52567;1,00000;3
140,84812;34,22250;0,52449;1,00000;3
140,82312;34,22583;0,52332;1,00000;3
140,79806;34,22917;0,52221;1,00000;3
140,77306;34,23250;0,52096;1,00000;3
140,74806;34,23583;0,51978;1,00000;3
140,72300;34,23917;0,51861;1,00000;3
140,69800;34,24250;0,51743;1,00000;3
140,67300;34,24583;0,51625;1,00000;3
140,64800;34,24917;0,51521;1,00000;3
140,62282;34,25250;0,51472;1,00000;3
140,59782;34,25583;0,51354;1,00000;3
140,57282;34,25917;0,51230;1,00000;3
140,54782;34,26250;0,51098;1,00000;3
140,52277;34,26583;0,50974;1,00000;3
140,49777;34,26917;0,50856;1,00000;3
140,47271;34,27250;0,50738;1,00000;3
140,44771;34,27583;0,50620;1,00000;3
140,42271;34,27917;0,50503;1,00000;3
140,39765;34,28250;0,50385;1,00000;3
140,37259;34,28583;0,50274;1,00000;3
140,34759;34,28917;0,50156;1,00000;3
140,32259;34,29250;0,50039;1,00000;3
140,29759;34,29583;0,49928;1,00000;3
140,27259;34,29917;0,49810;1,00000;3
140,24759;34,30250;0,49692;1,00000;3
140,22259;34,30583;0,49568;1,00000;3
140,19776;34,30917;0,49443;1,00000;3
140,17288;34,31250;0,49332;1,00000;3
140,14800;34,31583;0,49235;1,00000;3
140,12306;34,31917;0,49172;1,00000;3
140,09806;34,32250;0,49061;1,00000;3
140,07312;34,32583;0,48950;1,00000;3
140,04806;34,32917;0,48833;1,00000;3
140,02306;34,33250;0,48708;1,00000;3
139,99800;34,33583;0,48584;1,00000;3
139,97294;34,33917;0,48480;1,00000;3
139,94800;34,34250;0,48375;1,00000;3
139,92294;34,34583;0,48271;1,00000;3
139,89794;34,34917;0,48161;1,00000;3
139,87288;34,35250;0,48057;1,00000;3
139,84782;34,35583;0,47946;1,00000;3
139,82276;34,35917;0,47828;1,00000;3
139,79776;34,36250;0,47717;1,00000;3
139,77271;34,36583;0,47606;1,00000;3
139,74759;34,36917;0,47509;1,00000;3
139,72247;34,37250;0,47405;1,00000;3
139,69741;34,37583;0,47322;1,00000;3
139,67235;34,37917;0,47238;1,00000;3
139,64724;34,38250;0,47127;1,00000;3
139,62224;34,38583;0,46989;1,00000;3
139,59718;34,38917;0,46844;1,00000;3
139,57218;34,39250;0,46719;1,00000;3
139,54712;34,39583;0,46615;1,00000;3
139,52206;34,39917;0,46504;1,00000;3
139,49700;34,40250;0,46407;1,00000;3
139,47194;34,40583;0,46310;1,00000;3
139,44694;34,40917;0,46206;1,00000;3
139,42194;34,41250;0,46109;1,00000;3
139,39694;34,41583;0,46018;1,00000;3
139,37194;34,41917;0,45914;1,00000;3
139,34700;34,42250;0,45810;1,00000;3
139,32206;34,42583;0,45713;1,00000;3
139,29712;34,42917;0,45609;1,00000;3
139,27206;34,43250;0,45512;1,00000;3
139,24706;34,43583;0,45415;1,00000;3
139,22212;34,43917;0,45304;1,00000;3
139,19718;34,44250;0,45200;1,00000;3
139,17224;34,44583;0,45096;1,00000;3
139,14729;34,44917;0,44999;1,00000;3
139,12241;34,45250;0,44915;1,00000;3
139,09747;34,45583;0,44832;1,00000;3
139,07253;34,45917;0,44742;1,00000;3
139,04765;34,46250;0,44645;1,00000;3
139,02271;34,46583;0,44534;1,00000;3
138,99777;34,46917;0,44423;1,00000;3
138,97277;34,47250;0,44312;1,00000;3
138,94782;34,47583;0,44208;1,00000;3
138,92277;34,47917;0,44111;1,00000;3
138,89777;34,48250;0,44020;1,00000;3
138,87277;34,48583;0,43923;1,00000;3
138,84777;34,48917;0,43826;1,00000;3
138,82277;34,49250;0,43722;1,00000;3
138,79771;34,49583;0,43611;1,00000;3
138,77271;34,49917;0,43514;1,00000;3
138,74771;34,50250;0,43424;1,00000;3
138,72271;34,50583;0,43388;1,00000;3
138,69771;34,50917;0,43353;1,00000;3
138,67265;34,51250;0,43283;1,00000;3
138,64765;34,51583;0,43179;1,00000;3
138,62265;34,51917;0,43048;1,00000;3
138,59753;34,52250;0,42944;1,00000;3
138,57247;34,52583;0,42840;1,00000;3
138,54747;34,52917;0,42736;1,00000;3
138,52241;34,53250;0,42632;1,00000;3
138,49735;34,53583;0,42521;1,00000;3
138,47229;34,53917;0,42424;1,00000;3
138,44724;34,54250;0,42327;1,00000;3
138,42235;34,54583;0,42223;1,00000;3
138,39735;34,54917;0,42125;1,00000;3
138,37241;34,55250;0,42035;1,00000;3
138,34741;34,55583;0,41945;1,00000;3
138,32247;34,55917;0,41848;1,00000;3
138,29741;34,56250;0,41750;1,00000;3
138,27235;34,56583;0,41674;1,00000;3
138,24735;34,56917;0,41597;1,00000;3
138,22235;34,57250;0,41528;1,00000;3
138,19718;34,57583;0,41451;1,00000;3
138,17229;34,57917;0,41381;1,00000;3
138,14735;34,58250;0,41305;1,00000;3
138,12247;34,58583;0,41215;1,00000;3
138,09753;34,58917;0,41124;1,00000;3
138,07259;34,59250;0,41041;1,00000;3
138,04765;34,59583;0,40957;1,00000;3
138,02277;34,59917;0,40874;1,00000;3
137,99771;34,60250;0,40777;1,00000;3
137,97276;34,60583;0,40693;1,00000;3
137,94776;34,60917;0,40610;1,00000;3
137,92277;34,61250;0,40527;1,00000;3
137,89765;34,61583;0,40436;1,00000;3
137,87265;34,61917;0,40360;1,00000;3
137,84765;34,62250;0,40269;1,00000;3
137,82271;34,62583;0,40172;1,00000;3
137,79777;34,62917;0,40075;1,00000;3
137,77288;34,63250;0,40026;1,00000;3
137,74788;34,63583;0,39977;1,00000;3
137,72283;34,63917;0,39866;1,00000;3
137,69783;34,64250;0,39755;1,00000;3
137,67283;34,64583;0,39658;1,00000;3
137,64783;34,64917;0,39567;1,00000;3
137,62283;34,65250;0,39484;1,00000;3
137,59783;34,65583;0,39401;1,00000;3
137,57288;34,65917;0,39324;1,00000;3
137,54788;34,66250;0,39254;1,00000;3
137,52288;34,66583;0,39178;1,00000;3
137,49788;34,66917;0,39101;1,00000;3
137,47294;34,67250;0,39018;1,00000;3
137,44800;34,67583;0,38934;1,00000;3
137,42306;34,67917;0,38858;1,00000;3
137,39806;34,68250;0,38781;1,00000;3
137,37312;34,68583;0,38718;1,00000;3
137,34812;34,68917;0,38656;1,00000;3
137,32312;34,69250;0,38572;1,00000;3
137,29818;34,69583;0,38502;1,00000;3
137,27312;34,69917;0,38426;1,00000;3
137,24818;34,70250;0,38349;1,00000;3
137,22318;34,70583;0,38266;1,00000;3
137,19824;34,70917;0,38176;1,00000;3
137,17323;34,71250;0,38085;1,00000;3
137,14824;34,71583;0,38002;1,00000;3
137,12324;34,71917;0,37932;1,00000;3
137,09824;34,72250;0,37856;1,00000;3
137,07329;34,72583;0,37786;1,00000;3
137,04829;34,72917;0,37723;1,00000;3
137,02329;34,73250;0,37653;1,00000;3
136,99829;34,73583;0,37590;1,00000;3
136,97341;34,73917;0,37528;1,00000;3
136,94841;34,74250;0,37465;1,00000;3
136,92347;34,74583;0,37402;1,00000;3
136,89853;34,74917;0,37332;1,00000;3
136,87353;34,75250;0,37269;1,00000;3
136,84847;34,75583;0,37206;1,00000;3
136,82347;34,75917;0,37123;1,00000;3
136,79847;34,76250;0,37026;1,00000;3
136,77353;34,76583;0,36942;1,00000;3
136,74847;34,76917;0,36866;1,00000;3
136,72341;34,77250;0,36803;1,00000;3
136,69835;34,77583;0,36802;1,00000;3
136,67335;34,77917;0,36753;1,00000;3
136,64829;34,78250;0,36676;1,00000;3
136,62324;34,78583;0,36613;1,00000;3
136,59818;34,78917;0,36537;1,00000;3
136,57324;34,79250;0,36453;1,00000;3
136,54818;34,79583;0,36370;1,00000;3
136,52318;34,79917;0,36300;1,00000;3
136,49818;34,80250;0,36230;1,00000;3
136,47312;34,80583;0,36147;1,00000;3
136,44806;34,80917;0,36077;1,00000;3
136,42323;34,81250;0,36014;1,00000;3
136,39829;34,81583;0,35938;1,00000;3
136,37329;34,81917;0,35868;1,00000;3
136,34818;34,82250;0,35805;1,00000;3
136,32323;34,82583;0,35743;1,00000;3
136,29823;34,82917;0,35680;1,00000;3
136,27335;34,83250;0,35610;1,00000;3
136,24835;34,83583;0,35540;1,00000;3
136,22335;34,83917;0,35477;1,00000;3
136,19847;34,84250;0,35415;1,00000;3
136,17359;34,84583;0,35393;1,00000;3
136,14853;34,84917;0,35371;1,00000;3
136,12353;34,85250;0,35267;1,00000;3
136,09847;34,85583;0,35204;1,00000;3
136,07347;34,85917;0,35135;1,00000;3
136,04847;34,86250;0,35051;1,00000;3
136,02359;34,86583;0,34975;1,00000;3
135,99847;34,86917;0,34891;1,00000;3
135,97341;34,87250;0,34835;1,00000;3
135,94841;34,87583;0,34765;1,00000;3
135,92347;34,87917;0,34703;1,00000;3
135,89841;34,88250;0,34640;1,00000;3
135,87341;34,88583;0,34577;1,00000;3
135,84835;34,88917;0,34514;1,00000;3
135,82341;34,89250;0,34465;1,00000;3
135,79859;34,89583;0,34443;1,00000;3
135,77359;34,89917;0,34401;1,00000;3
135,74859;34,90250;0,34345;1,00000;3
135,72365;34,90583;0,34255;1,00000;3
135,69865;34,90917;0,34192;1,00000;3
135,67371;34,91250;0,34150;1,00000;3
135,64882;34,91583;0,34094;1,00000;3
135,62388;34,91917;0,34058;1,00000;3
135,59876;34,92250;0,34002;1,00000;3
135,57376;34,92583;0,33932;1,00000;3
135,54876;34,92917;0,33849;1,00000;3
135,52388;34,93250;0,33772;1,00000;3
135,49894;34,93583;0,33710;1,00000;3
135,47406;34,93917;0,33647;1,00000;3
135,44912;34,94250;0,33584;1,00000;3
135,42417;34,94583;0,33528;1,00000;3
135,39918;34,94917;0,33472;1,00000;3
135,37400;34,95250;0,33430;1,00000;3
135,34894;34,95583;0,33381;1,00000;3
135,32382;34,95917;0,33331;1,00000;3
135,29870;34,96250;0,33275;1,00000;3
135,27365;34,96583;0,33226;1,00000;3
135,24859;34,96917;0,33163;1,00000;3
135,22347;34,97250;0,33101;1,00000;3
135,19841;34,97583;0,33045;1,00000;3
135,17353;34,97917;0,32995;1,00000;3
135,14853;34,98250;0,32933;1,00000;3
135,12347;34,98583;0,32870;1,00000;3
135,09829;34,98917;0,32807;1,00000;3
135,07312;34,99250;0,32751;1,00000;3
135,04800;34,99583;0,32695;1,00000;3
135,02294;34,99917;0,32639;1,00000;3
134,99788;35,00250;0,32576;1,00000;3
134,97282;35,00583;0,32520;1,00000;3
134,94782;35,00917;0,32464;1,00000;3
134,92288;35,01250;0,32408;1,00000;3
134,89794;35,01583;0,32359;1,00000;3
134,87294;35,01917;0,32303;1,00000;3
134,84800;35,02250;0,32247;1,00000;3
134,82306;35,02583;0,32212;1,00000;3
134,79806;35,02917;0,32176;1,00000;3
134,77312;35,03250;0,32134;1,00000;3
134,74812;35,03583;0,32092;1,00000;3
134,72318;35,03917;0,32043;1,00000;3
134,69818;35,04250;0,31987;1,00000;3
134,67324;35,04583;0,31937;1,00000;3
134,64835;35,04917;0,31888;1,00000;3
134,62347;35,05250;0,31846;1,00000;3
134,59853;35,05583;0,31845;1,00000;3
134,57359;35,05917;0,31823;1,00000;3
134,54859;35,06250;0,31788;1,00000;3
134,52365;35,06583;0,31725;1,00000;3
134,49865;35,06917;0,31662;1,00000;3
134,47371;35,07250;0,31613;1,00000;3
134,44882;35,07583;0,31550;1,00000;3
134,42388;35,07917;0,31501;1,00000;3
134,39888;35,08250;0,31418;1,00000;3
134,37388;35,08583;0,31362;1,00000;3
134,34888;35,08917;0,31312;1,00000;3
134,32388;35,09250;0,31257;1,00000;3
134,29888;35,09583;0,31194;1,00000;3
134,27394;35,09917;0,31145;1,00000;3
134,24900;35,10250;0,31089;1,00000;3
134,22400;35,10583;0,31039;1,00000;3
134,19894;35,10917;0,30983;1,00000;3
134,17394;35,11250;0,30934;1,00000;3
134,14888;35,11583;0,30885;1,00000;3
134,12394;35,11917;0,30870;1,00000;3
134,09888;35,12250;0,30842;1,00000;3
134,07382;35,12583;0,30793;1,00000;3
134,04876;35,12917;0,30744;1,00000;3
134,02377;35,13250;0,30688;1,00000;3
133,99865;35,13583;0,30632;1,00000;3
133,97359;35,13917;0,30624;1,00000;3
133,94871;35,14250;0,30609;1,00000;3
133,92376;35,14583;0,30560;1,00000;3
133,89877;35,14917;0,30504;1,00000;3
133,87365;35,15250;0,30461;1,00000;3
133,84853;35,15583;0,30419;1,00000;3
133,82353;35,15917;0,30370;1,00000;3
133,79865;35,16250;0,30293;1,00000;3
133,77365;35,16583;0,30244;1,00000;3
133,74865;35,16917;0,30202;1,00000;3
133,72365;35,17250;0,30153;1,00000;3
133,69871;35,17583;0,30104;1,00000;3
133,67377;35,17917;0,30068;1,00000;3
133,64882;35,18250;0,30026;1,00000;3
133,62382;35,18583;0,29977;1,00000;3
133,59882;35,18917;0,29935;1,00000;3
133,57388;35,19250;0,29892;1,00000;3
133,54894;35,19583;0,29857;1,00000;3
133,52382;35,19917;0,29808;1,00000;3
133,49882;35,20250;0,29766;1,00000;3
133,47382;35,20583;0,29723;1,00000;3
133,44900;35,20917;0,29674;1,00000;3
133,42418;35,21250;0,29646;1,00000;3
133,39918;35,21583;0,29603;1,00000;3
133,37406;35,21917;0,29568;1,00000;3
133,34906;35,22250;0,29526;1,00000;3
133,32400;35,22583;0,29477;1,00000;3
133,29906;35,22917;0,29428;1,00000;3
133,27400;35,23250;0,29385;1,00000;3
133,24900;35,23583;0,29336;1,00000;3
133,22400;35,23917;0,29294;1,00000;3
133,19906;35,24250;0,29258;1,00000;3
133,17406;35,24583;0,29223;1,00000;3
133,14906;35,24917;0,29194;1,00000;3
133,12406;35,25250;0,29166;1,00000;3
133,09918;35,25583;0,29131;1,00000;3
133,07412;35,25917;0,29088;1,00000;3
133,04918;35,26250;0,29046;1,00000;3
133,02406;35,26583;0,29011;1,00000;3
132,99894;35,26917;0,28975;1,00000;3
132,97394;35,27250;0,28947;1,00000;3
132,94882;35,27583;0,28918;1,00000;3
132,92376;35,27917;0,28890;1,00000;3
132,89882;35,28250;0,28840;1,00000;3
132,87382;35,28583;0,28798;1,00000;3
132,84888;35,28917;0,28749;1,00000;3
132,82388;35,29250;0,28714;1,00000;3
132,79888;35,29583;0,28712;1,00000;3
132,77388;35,29917;0,28698;1,00000;3
132,74882;35,30250;0,28655;1,00000;3
132,72388;35,30583;0,28606;1,00000;3
132,69888;35,30917;0,28557;1,00000;3
132,67388;35,31250;0,28515;1,00000;3
132,64882;35,31583;0,28459;1,00000;3
132,62376;35,31917;0,28417;1,00000;3
132,59882;35,32250;0,28388;1,00000;3
132,57388;35,32583;0,28339;1,00000;3
132,54894;35,32917;0,28297;1,00000;3
132,52412;35,33250;0,28241;1,00000;3
132,49918;35,33583;0,28192;1,00000;3
132,47417;35,33917;0,28149;1,00000;3
132,44917;35,34250;0,28100;1,00000;3
132,42406;35,34583;0,28058;1,00000;3
132,39912;35,34917;0,28023;1,00000;3
132,37418;35,35250;0,27994;1,00000;3
132,34923;35,35583;0,27959;1,00000;3
132,32435;35,35917;0,27916;1,00000;3
132,29935;35,36250;0,27881;1,00000;3
132,27441;35,36583;0,27852;1,00000;3
132,24941;35,36917;0,27824;1,00000;3
132,22453;35,37250;0,27795;1,00000;3
132,19959;35,37583;0,27794;1,00000;3
132,17465;35,37917;0,27786;1,00000;3
132,14971;35,38250;0,27765;1,00000;3
132,12471;35,38583;0,27688;1,00000;3
132,09971;35,38917;0,27639;1,00000;3
132,07471;35,39250;0,27597;1,00000;3
132,04971;35,39583;0,27575;1,00000;3
132,02476;35,39917;0,27553;1,00000;3
131,99982;35,40250;0,27525;1,00000;3
131,97476;35,40583;0,27489;1,00000;3
131,94976;35,40917;0,27454;1,00000;3
131,92476;35,41250;0,27425;1,00000;3
131,89976;35,41583;0,27376;1,00000;3
131,87482;35,41917;0,27327;1,00000;3
131,84982;35,42250;0,27278;1,00000;3
131,82488;35,42583;0,27222;1,00000;3
131,79988;35,42917;0,27180;1,00000;3
131,77488;35,43250;0,27137;1,00000;3
131,74982;35,43583;0,27102;1,00000;3
131,72482;35,43917;0,27087;1,00000;3
131,69982;35,44250;0,27086;1,00000;3
131,67488;35,44583;0,27071;1,00000;3
131,65000;35,44917;0,27056;1,00000;3
131,62494;35,45250;0,27048;1,00000;3
131,59994;35,45583;0,27020;1,00000;3
131,57500;35,45917;0,26950;1,00000;3
131,55000;35,46250;0,26915;1,00000;3
131,52494;35,46583;0,26859;1,00000;3
131,49982;35,46917;0,26803;1,00000;3
131,47476;35,47250;0,26767;1,00000;3
131,44965;35,47583;0,26739;1,00000;3
131,42459;35,47917;0,26710;1,00000;3
131,39953;35,48250;0,26675;1,00000;3
131,37447;35,48583;0,26660;1,00000;3
131,34941;35,48917;0,26631;1,00000;3
131,32435;35,49250;0,26610;1,00000;3
131,29929;35,49583;0,26609;1,00000;3
131,27424;35,49917;0,26601;1,00000;3
131,24906;35,50250;0,26586;1,00000;3
131,22394;35,50583;0,26537;1,00000;3
131,19888;35,50917;0,26495;1,00000;3
131,17382;35,51250;0,26466;1,00000;3
131,14871;35,51583;0,26437;1,00000;3
131,12371;35,51917;0,26402;1,00000;3
131,09859;35,52250;0,26360;1,00000;3
131,07347;35,52583;0,26317;1,00000;3
131,04841;35,52917;0,26275;1,00000;3
131,02341;35,53250;0,26254;1,00000;3
130,99841;35,53583;0,26225;1,00000;3
130,97335;35,53917;0,26176;1,00000;3
130,94824;35,54250;0,26147;1,00000;3
130,92324;35,54583;0,26119;1,00000;3
130,89829;35,54917;0,26083;1,00000;3
130,87324;35,55250;0,26055;1,00000;3
130,84812;35,55583;0,26019;1,00000;3
130,82318;35,55917;0,25998;1,00000;3
130,79812;35,56250;0,25969;1,00000;3
130,77324;35,56583;0,25947;1,00000;3
130,74818;35,56917;0,25926;1,00000;3
130,72324;35,57250;0,25897;1,00000;3
130,69818;35,57583;0,25869;1,00000;3
130,67330;35,57917;0,25840;1,00000;3
130,64847;35,58250;0,25805;1,00000;3
130,62347;35,58583;0,25776;1,00000;3
130,59841;35,58917;0,25748;1,00000;3
130,57341;35,59250;0,25740;1,00000;3
130,54841;35,59583;0,25732;1,00000;3
130,52347;35,59917;0,25724;1,00000;3
130,49841;35,60250;0,25661;1,00000;3
130,47335;35,60583;0,25626;1,00000;3
130,44841;35,60917;0,25611;1,00000;3
130,42347;35,61250;0,25589;1,00000;3
130,39835;35,61583;0,25574;1,00000;3
130,37329;35,61917;0,25580;1,00000;3
130,34818;35,62250;0,25558;1,00000;3
130,32312;35,62583;0,25489;1,00000;3
130,29812;35,62917;0,25439;1,00000;3
130,27312;35,63250;0,25397;1,00000;3
130,24806;35,63583;0,25355;1,00000;3
130,22294;35,63917;0,25326;1,00000;3
130,19794;35,64250;0,25284;1,00000;3
130,17288;35,64583;0,25262;1,00000;3
130,14782;35,64917;0,25234;1,00000;3
130,12271;35,65250;0,25198;1,00000;3
130,09765;35,65583;0,25156;1,00000;3
130,07265;35,65917;0,25134;1,00000;3
130,04771;35,66250;0,25106;1,00000;3
130,02271;35,66583;0,25084;1,00000;3
129,99771;35,66917;0,25056;1,00000;3
129,97276;35,67250;0,25041;1,00000;3
129,94782;35,67583;0,25012;1,00000;3
129,92288;35,67917;0,24997;1,00000;3
129,89800;35,68250;0,25003;1,00000;3
129,87294;35,68583;0,25002;1,00000;3
129,84788;35,68917;0,24987;1,00000;3
129,82288;35,69250;0,24973;1,00000;3
129,79794;35,69583;0,24944;1,00000;3
129,77288;35,69917;0,24915;1,00000;3
129,74788;35,70250;0,24887;1,00000;3
129,72288;35,70583;0,24858;1,00000;3
129,69794;35,70917;0,24802;1,00000;3
129,67300;35,71250;0,24788;1,00000;3
129,64794;35,71583;0,24773;1,00000;3
129,62294;35,71917;0,24751;1,00000;3
129,59788;35,72250;0,24729;1,00000;3
129,57288;35,72583;0,24714;1,00000;3
129,54794;35,72917;0,24679;1,00000;3
129,52300;35,73250;0,24637;1,00000;3
129,49806;35,73583;0,24608;1,00000;3
129,47306;35,73917;0,24593;1,00000;3
129,44806;35,74250;0,24579;1,00000;3
129,42312;35,74583;0,24550;1,00000;3
129,39812;35,74917;0,24522;1,00000;3
129,37312;35,75250;0,24493;1,00000;3
129,34818;35,75583;0,24464;1,00000;3
129,32329;35,75917;0,24436;1,00000;3
129,29835;35,76250;0,24407;1,00000;3
129,27341;35,76583;0,24365;1,00000;3
129,24841;35,76917;0,24330;1,00000;3
129,22335;35,77250;0,24315;1,00000;3
129,19835;35,77583;0,24293;1,00000;3
129,17341;35,77917;0,24258;1,00000;3
129,14847;35,78250;0,24229;1,00000;3
129,12341;35,78583;0,24208;1,00000;3
129,09841;35,78917;0,24179;1,00000;3
129,07335;35,79250;0,24157;1,00000;3
129,04829;35,79583;0,24129;1,00000;3
129,02335;35,79917;0,24100;1,00000;3
128,99841;35,80250;0,24065;1,00000;3
128,97341;35,80583;0,24043;1,00000;3
128,94847;35,80917;0,24015;1,00000;3
128,92353;35,81250;0,23986;1,00000;3
128,89847;35,81583;0,23964;1,00000;3
128,87347;35,81917;0,23943;1,00000;3
128,84841;35,82250;0,23907;1,00000;3
128,82341;35,82583;0,23872;1,00000;3
128,79853;35,82917;0,23850;1,00000;3
128,77347;35,83250;0,23822;1,00000;3
128,74847;35,83583;0,23800;1,00000;3
128,72347;35,83917;0,23778;1,00000;3
128,69853;35,84250;0,23763;1,00000;3
128,67353;35,84583;0,23735;1,00000;3
128,64859;35,84917;0,23713;1,00000;3
128,62365;35,85250;0,23692;1,00000;3
128,59865;35,85583;0,23656;1,00000;3
128,57359;35,85917;0,23628;1,00000;3
128,54865;35,86250;0,23599;1,00000;3
128,52359;35,86583;0,23564;1,00000;3
128,49847;35,86917;0,23535;1,00000;3
128,47359;35,87250;0,23507;1,00000;3
128,44859;35,87583;0,23512;1,00000;3
128,42359;35,87917;0,23511;1,00000;3
128,39859;35,88250;0,23469;1,00000;3
128,37359;35,88583;0,23420;1,00000;3
128,34859;35,88917;0,23405;1,00000;3
128,32365;35,89250;0,23397;1,00000;3
128,29859;35,89583;0,23382;1,00000;3
128,27359;35,89917;0,23354;1,00000;3
128,24859;35,90250;0,23318;1,00000;3
128,22353;35,90583;0,23290;1,00000;3
128,19847;35,90917;0,23261;1,00000;3
128,17347;35,91250;0,23226;1,00000;3
128,14853;35,91583;0,23204;1,00000;3
128,12359;35,91917;0,23189;1,00000;3
128,09865;35,92250;0,23161;1,00000;3
128,07376;35,92583;0,23132;1,00000;3
128,04871;35,92917;0,23104;1,00000;3
128,02371;35,93250;0,23075;1,00000;3
127,99876;35,93583;0,23046;1,00000;3
127,97382;35,93917;0,23011;1,00000;3
127,94888;35,94250;0,22989;1,00000;3
127,92394;35,94583;0,22968;1,00000;3
127,89882;35,94917;0,22953;1,00000;3
127,87388;35,95250;0,22952;1,00000;3
127,84888;35,95583;0,22964;1,00000;3
127,82382;35,95917;0,22963;1,00000;3
127,79888;35,96250;0,22949;1,00000;3
127,77394;35,96583;0,22920;1,00000;3
127,74888;35,96917;0,22857;1,00000;3
127,72382;35,97250;0,22829;1,00000;3
127,69877;35,97583;0,22793;1,00000;3
127,67376;35,97917;0,22778;1,00000;3
127,64882;35,98250;0,22757;1,00000;3
127,62376;35,98583;0,22756;1,00000;3
127,59876;35,98917;0,22741;1,00000;3
127,57376;35,99250;0,22705;1,00000;3
127,54882;35,99583;0,22684;1,00000;3
127,52382;35,99917;0,22669;1,00000;3
127,49882;36,00250;0,22647;1,00000;3
127,47388;36,00583;0,22632;1,00000;3
127,44888;36,00917;0,22604;1,00000;3
127,42394;36,01250;0,22589;1,00000;3
127,39912;36,01583;0,22574;1,00000;3
127,37418;36,01917;0,22559;1,00000;3
127,34924;36,02250;0,22551;1,00000;3
127,32435;36,02583;0,22537;1,00000;3
127,29953;36,02917;0,22481;1,00000;3
127,27459;36,03250;0,22438;1,00000;3
127,24965;36,03583;0,22423;1,00000;3
127,22471;36,03917;0,22402;1,00000;3
127,19982;36,04250;0,22387;1,00000;3
127,17494;36,04583;0,22372;1,00000;3
127,15000;36,04917;0,22337;1,00000;3
127,12494;36,05250;0,22308;1,00000;3
127,09994;36,05583;0,22287;1,00000;3
127,07506;36,05917;0,22258;1,00000;3
127,05006;36,06250;0,22229;1,00000;3
127,02512;36,06583;0,22221;1,00000;3
127,00006;36,06917;0,22200;1,00000;3
126,97494;36,07250;0,22212;1,00000;3
126,94994;36,07583;0,22191;1,00000;3
126,92500;36,07917;0,22169;1,00000;3
126,90000;36,08250;0,22182;1,00000;3
126,87494;36,08583;0,22181;1,00000;3
126,84988;36,08917;0,22179;1,00000;3
126,82482;36,09250;0,22165;1,00000;3
126,79971;36,09583;0,22150;1,00000;3
126,77471;36,09917;0,22073;1,00000;3
126,74959;36,10250;0,22038;1,00000;3
126,72453;36,10583;0,22002;1,00000;3
126,69953;36,10917;0,21981;1,00000;3
126,67453;36,11250;0,21980;1,00000;3
126,64947;36,11583;0,21972;1,00000;3
126,62447;36,11917;0,21950;1,00000;3
126,59941;36,12250;0,21942;1,00000;3
126,57435;36,12583;0,21893;1,00000;3
126,54935;36,12917;0,21857;1,00000;3
126,52429;36,13250;0,21836;1,00000;3
126,49929;36,13583;0,21848;1,00000;3
126,47429;36,13917;0,21854;1,00000;3
126,44924;36,14250;0,21846;1,00000;3
126,42424;36,14583;0,21831;1,00000;3
126,39929;36,14917;0,21810;1,00000;3
126,37435;36,15250;0,21767;1,00000;3
126,34935;36,15583;0,21732;1,00000;3
126,32429;36,15917;0,21697;1,00000;3
126,29935;36,16250;0,21654;1,00000;3
126,27429;36,16583;0,21626;1,00000;3
126,24929;36,16917;0,21604;1,00000;3
126,22424;36,17250;0,21582;1,00000;3
126,19929;36,17583;0,21561;1,00000;3
126,17435;36,17917;0,21539;1,00000;3
126,14941;36,18250;0,21538;1,00000;3
126,12441;36,18583;0,21530;1,00000;3
126,09947;36,18917;0,21515;1,00000;3
126,07441;36,19250;0,21500;1,00000;3
126,04935;36,19583;0,21485;1,00000;3
126,02435;36,19917;0,21471;1,00000;3
125,99941;36,20250;0,21449;1,00000;3
125,97435;36,20583;0,21427;1,00000;3
125,94929;36,20917;0,21406;1,00000;3
125,92429;36,21250;0,21384;1,00000;3
125,89941;36,21583;0,21369;1,00000;3
125,87441;36,21917;0,21347;1,00000;3
125,84953;36,22250;0,21333;1,00000;3
125,82459;36,22583;0,21283;1,00000;3
125,79959;36,22917;0,21269;1,00000;3
125,77465;36,23250;0,21240;1,00000;3
125,74953;36,23583;0,21232;1,00000;3
125,72465;36,23917;0,21231;1,00000;3
125,69976;36,24250;0,21230;1,00000;3
125,67476;36,24583;0,21181;1,00000;3
125,64982;36,24917;0,21139;1,00000;3
125,62494;36,25250;0,21124;1,00000;3
125,60006;36,25583;0,21116;1,00000;3
125,57512;36,25917;0,21101;1,00000;3
125,55023;36,26250;0,21065;1,00000;3
125,52535;36,26583;0,21058;1,00000;3
125,50041;36,26917;0,21043;1,00000;3
125,47547;36,27250;0,21028;1,00000;3
125,45053;36,27583;0,20999;1,00000;3

