#EXPORTTYPE:DATA SINGLE
#FILE:AP52DE55 1%TRG 10K.ngb-sd7
#FORMAT:NETZSCH5
#FTYPE:ANSI
#IDENTITY:AP52DE55 1%TRG 10K
#DECIMAL:COMMA
#SEPARATOR:SEMICOLON
#MTYPE:DSC
#INSTRUMENT:NETZSCH DSC 204F1 Phoenix
#PROJECT:Gutkowski praca in¿
#DATE/TIME:13.01.2016 08:43
#CORR. FILE:
#TEMPCAL:TCALZERO.TMX
#SENSITIVITY:SENSZERO.EXX
#LABORATORY:206
#OPERATOR:MIC
#REMARK:
#SAMPLE:AP52DE55 1%TRG 10K
#SAMPLE MASS /mg:11,38
#MATERIAL:PU
#REFERENCE:correction
#REFERENCE MASS /mg:0
#TYPE OF CRUCIBLE:Pan Al, closed
#SAMPLE CRUCIBLE MASS /mg:0
#REFERENCE CRUCIBLE MASS /mg:39,35
#M.RANGE /µV:5000
#TAU-R:---
#CORR. CODE:000
#EXO:+1
#RANGE:15°C....250°C/-10,0....15,0K/min
#SEGMENT:S3/3
#SEG. 1:15°C/15,0(K/min)/250°C
#SEG. 2:250°C/00:05/250°C
#SEG. 3:250°C/10,0(K/min)/30°C

##Temp./°C;Time/min;DSC/(uV/mg);Sensit./(uV/mW);Segment
159,43500;29,72583;0,28439;1,00000;3
159,40165;29,72917;0,28451;1,00000;3
159,36823;29,73250;0,28450;1,00000;3
159,33488;29,73583;0,28448;1,00000;3
159,30159;29,73917;0,28454;1,00000;3
159,26829;29,74250;0,28465;1,00000;3
159,23494;29,74583;0,28477;1,00000;3
159,20153;29,74917;0,28496;1,00000;3
159,16818;29,75250;0,28515;1,00000;3
159,13482;29,75583;0,28547;1,00000;3
159,10141;29,75917;0,28566;1,00000;3
159,06806;29,76250;0,28584;1,00000;3
159,03471;29,76583;0,28596;1,00000;3
159,00129;29,76917;0,28602;1,00000;3
158,96794;29,77250;0,28607;1,00000;3
158,93471;29,77583;0,28619;1,00000;3
158,90135;29,77917;0,28637;1,00000;3
158,86794;29,78250;0,28643;1,00000;3
158,83465;29,78583;0,28661;1,00000;3
158,80135;29,78917;0,28687;1,00000;3
158,76800;29,79250;0,28705;1,00000;3
158,73459;29,79583;0,28724;1,00000;3
158,70112;29,79917;0,28743;1,00000;3
158,66771;29,80250;0,28748;1,00000;3
158,63435;29,80583;0,28760;1,00000;3
158,60106;29,80917;0,28779;1,00000;3
158,56777;29,81250;0,28791;1,00000;3
158,53441;29,81583;0,28803;1,00000;3
158,50112;29,81917;0,28815;1,00000;3
158,46783;29,82250;0,28827;1,00000;3
158,43453;29,82583;0,28832;1,00000;3
158,40124;29,82917;0,28844;1,00000;3
158,36782;29,83250;0,28849;1,00000;3
158,33453;29,83583;0,28868;1,00000;3
158,30129;29,83917;0,28886;1,00000;3
158,26788;29,84250;0,28898;1,00000;3
158,23453;29,84583;0,28917;1,00000;3
158,20124;29,84917;0,28936;1,00000;3
158,16806;29,85250;0,28948;1,00000;3
158,13482;29,85583;0,28953;1,00000;3
158,10159;29,85917;0,28958;1,00000;3
158,06841;29,86250;0,28977;1,00000;3
158,03512;29,86583;0,28996;1,00000;3
158,00171;29,86917;0,29034;1,00000;3
157,96835;29,87250;0,29060;1,00000;3
157,93506;29,87583;0,29065;1,00000;3
157,90176;29,87917;0,29064;1,00000;3
157,86847;29,88250;0,29069;1,00000;3
157,83518;29,88583;0,29081;1,00000;3
157,80194;29,88917;0,29160;1,00000;3
157,76871;29,89250;0,29212;1,00000;3
157,73541;29,89583;0,29244;1,00000;3
157,70212;29,89917;0,29243;1,00000;3
157,66888;29,90250;0,29248;1,00000;3
157,63559;29,90583;0,29267;1,00000;3
157,60218;29,90917;0,29265;1,00000;3
157,56882;29,91250;0,29271;1,00000;3
157,53553;29,91583;0,29276;1,00000;3
157,50212;29,91917;0,29295;1,00000;3
157,46877;29,92250;0,29300;1,00000;3
157,43553;29,92583;0,29318;1,00000;3
157,40230;29,92917;0,29344;1,00000;3
157,36894;29,93250;0,29376;1,00000;3
157,33559;29,93583;0,29401;1,00000;3
157,30229;29,93917;0,29420;1,00000;3
157,26894;29,94250;0,29439;1,00000;3
157,23559;29,94583;0,29471;1,00000;3
157,20218;29,94917;0,29489;1,00000;3
157,16882;29,95250;0,29508;1,00000;3
157,13547;29,95583;0,29527;1,00000;3
157,10206;29,95917;0,29552;1,00000;3
157,06865;29,96250;0,29571;1,00000;3
157,03529;29,96583;0,29596;1,00000;3
157,00194;29,96917;0,29622;1,00000;3
156,96859;29,97250;0,29647;1,00000;3
156,93529;29,97583;0,29672;1,00000;3
156,90194;29,97917;0,29684;1,00000;3
156,86859;29,98250;0,29703;1,00000;3
156,83523;29,98583;0,29722;1,00000;3
156,80194;29,98917;0,29740;1,00000;3
156,76865;29,99250;0,29759;1,00000;3
156,73529;29,99583;0,29778;1,00000;3
156,70200;29,99917;0,29803;1,00000;3
156,66871;30,00250;0,29849;1,00000;3
156,63547;30,00583;0,29867;1,00000;3
156,60218;30,00917;0,29873;1,00000;3
156,56888;30,01250;0,29878;1,00000;3
156,53553;30,01583;0,29890;1,00000;3
156,50229;30,01917;0,29908;1,00000;3
156,46900;30,02250;0,29934;1,00000;3
156,43565;30,02583;0,29979;1,00000;3
156,40229;30,02917;0,30011;1,00000;3
156,36888;30,03250;0,30044;1,00000;3
156,33559;30,03583;0,30076;1,00000;3
156,30218;30,03917;0,30108;1,00000;3
156,26882;30,04250;0,30133;1,00000;3
156,23547;30,04583;0,30158;1,00000;3
156,20206;30,04917;0,30190;1,00000;3
156,16870;30,05250;0,30223;1,00000;3
156,13523;30,05583;0,30255;1,00000;3
156,10176;30,05917;0,30280;1,00000;3
156,06829;30,06250;0,30312;1,00000;3
156,03488;30,06583;0,30364;1,00000;3
156,00147;30,06917;0,30403;1,00000;3
155,96812;30,07250;0,30429;1,00000;3
155,93465;30,07583;0,30454;1,00000;3
155,90123;30,07917;0,30466;1,00000;3
155,86788;30,08250;0,30491;1,00000;3
155,83447;30,08583;0,30510;1,00000;3
155,80118;30,08917;0,30542;1,00000;3
155,76776;30,09250;0,30581;1,00000;3
155,73447;30,09583;0,30626;1,00000;3
155,70100;30,09917;0,30658;1,00000;3
155,66753;30,10250;0,30684;1,00000;3
155,63418;30,10583;0,30722;1,00000;3
155,60082;30,10917;0,30755;1,00000;3
155,56759;30,11250;0,30780;1,00000;3
155,53430;30,11583;0,30812;1,00000;3
155,50094;30,11917;0,30851;1,00000;3
155,46759;30,12250;0,30883;1,00000;3
155,43424;30,12583;0,30922;1,00000;3
155,40094;30,12917;0,30947;1,00000;3
155,36759;30,13250;0,30979;1,00000;3
155,33424;30,13583;0,31005;1,00000;3
155,30094;30,13917;0,31050;1,00000;3
155,26765;30,14250;0,31082;1,00000;3
155,23430;30,14583;0,31161;1,00000;3
155,20100;30,14917;0,31193;1,00000;3
155,16759;30,15250;0,31212;1,00000;3
155,13435;30,15583;0,31237;1,00000;3
155,10112;30,15917;0,31263;1,00000;3
155,06777;30,16250;0,31301;1,00000;3
155,03447;30,16583;0,31394;1,00000;3
155,00112;30,16917;0,31453;1,00000;3
154,96777;30,17250;0,31492;1,00000;3
154,93447;30,17583;0,31524;1,00000;3
154,90118;30,17917;0,31562;1,00000;3
154,86782;30,18250;0,31615;1,00000;3
154,83453;30,18583;0,31667;1,00000;3
154,80135;30,18917;0,31712;1,00000;3
154,76806;30,19250;0,31758;1,00000;3
154,73471;30,19583;0,31797;1,00000;3
154,70141;30,19917;0,31835;1,00000;3
154,66806;30,20250;0,31868;1,00000;3
154,63471;30,20583;0,31906;1,00000;3
154,60141;30,20917;0,31958;1,00000;3
154,56806;30,21250;0,32004;1,00000;3
154,53465;30,21583;0,32050;1,00000;3
154,50129;30,21917;0,32088;1,00000;3
154,46794;30,22250;0,32134;1,00000;3
154,43453;30,22583;0,32179;1,00000;3
154,40112;30,22917;0,32225;1,00000;3
154,36782;30,23250;0,32304;1,00000;3
154,33447;30,23583;0,32322;1,00000;3
154,30112;30,23917;0,32334;1,00000;3
154,26771;30,24250;0,32373;1,00000;3
154,23423;30,24583;0,32412;1,00000;3
154,20082;30,24917;0,32437;1,00000;3
154,16741;30,25250;0,32490;1,00000;3
154,13400;30,25583;0,32542;1,00000;3
154,10065;30,25917;0,32601;1,00000;3
154,06723;30,26250;0,32653;1,00000;3
154,03388;30,26583;0,32712;1,00000;3
154,00053;30,26917;0,32771;1,00000;3
153,96723;30,27250;0,32823;1,00000;3
153,93388;30,27583;0,32875;1,00000;3
153,90047;30,27917;0,32927;1,00000;3
153,86706;30,28250;0,32986;1,00000;3
153,83377;30,28583;0,33038;1,00000;3
153,80035;30,28917;0,33091;1,00000;3
153,76694;30,29250;0,33149;1,00000;3
153,73371;30,29583;0,33215;1,00000;3
153,70035;30,29917;0,33287;1,00000;3
153,66700;30,30250;0,33366;1,00000;3
153,63371;30,30583;0,33439;1,00000;3
153,60041;30,30917;0,33491;1,00000;3
153,56706;30,31250;0,33550;1,00000;3
153,53371;30,31583;0,33609;1,00000;3
153,50041;30,31917;0,33661;1,00000;3
153,46706;30,32250;0,33727;1,00000;3
153,43377;30,32583;0,33806;1,00000;3
153,40047;30,32917;0,33871;1,00000;3
153,36712;30,33250;0,33930;1,00000;3
153,33376;30,33583;0,33982;1,00000;3
153,30047;30,33917;0,34034;1,00000;3
153,26712;30,34250;0,34087;1,00000;3
153,23376;30,34583;0,34146;1,00000;3
153,20047;30,34917;0,34204;1,00000;3
153,16712;30,35250;0,34263;1,00000;3
153,13376;30,35583;0,34329;1,00000;3
153,10047;30,35917;0,34401;1,00000;3
153,06706;30,36250;0,34467;1,00000;3
153,03371;30,36583;0,34539;1,00000;3
153,00041;30,36917;0,34611;1,00000;3
152,96712;30,37250;0,34697;1,00000;3
152,93382;30,37583;0,34783;1,00000;3
152,90047;30,37917;0,34875;1,00000;3
152,86706;30,38250;0,34968;1,00000;3
152,83371;30,38583;0,35047;1,00000;3
152,80041;30,38917;0,35119;1,00000;3
152,76700;30,39250;0,35191;1,00000;3
152,73365;30,39583;0,35270;1,00000;3
152,70023;30,39917;0,35349;1,00000;3
152,66688;30,40250;0,35429;1,00000;3
152,63353;30,40583;0,35514;1,00000;3
152,60012;30,40917;0,35600;1,00000;3
152,56676;30,41250;0,35686;1,00000;3
152,53335;30,41583;0,35765;1,00000;3
152,50006;30,41917;0,35850;1,00000;3
152,46659;30,42250;0,35929;1,00000;3
152,43318;30,42583;0,36015;1,00000;3
152,39976;30,42917;0,36114;1,00000;3
152,36629;30,43250;0,36227;1,00000;3
152,33294;30,43583;0,36306;1,00000;3
152,29965;30,43917;0,36405;1,00000;3
152,26623;30,44250;0,36491;1,00000;3
152,23288;30,44583;0,36563;1,00000;3
152,19965;30,44917;0,36642;1,00000;3
152,16635;30,45250;0,36734;1,00000;3
152,13306;30,45583;0,36820;1,00000;3
152,09965;30,45917;0,36912;1,00000;3
152,06629;30,46250;0,37012;1,00000;3
152,03294;30,46583;0,37104;1,00000;3
151,99959;30,46917;0,37196;1,00000;3
151,96629;30,47250;0,37296;1,00000;3
151,93294;30,47583;0,37408;1,00000;3
151,89976;30,47917;0,37527;1,00000;3
151,86647;30,48250;0,37640;1,00000;3
151,83318;30,48583;0,37752;1,00000;3
151,79994;30,48917;0,37858;1,00000;3
151,76659;30,49250;0,37964;1,00000;3
151,73318;30,49583;0,38083;1,00000;3
151,69988;30,49917;0,38203;1,00000;3
151,66647;30,50250;0,38342;1,00000;3
151,63306;30,50583;0,38468;1,00000;3
151,59977;30,50917;0,38594;1,00000;3
151,56647;30,51250;0,38720;1,00000;3
151,53318;30,51583;0,38839;1,00000;3
151,49977;30,51917;0,38965;1,00000;3
151,46647;30,52250;0,39044;1,00000;3
151,43312;30,52583;0,39143;1,00000;3
151,39977;30,52917;0,39282;1,00000;3
151,36635;30,53250;0,39429;1,00000;3
151,33288;30,53583;0,39581;1,00000;3
151,29947;30,53917;0,39721;1,00000;3
151,26600;30,54250;0,39853;1,00000;3
151,23259;30,54583;0,39986;1,00000;3
151,19930;30,54917;0,40112;1,00000;3
151,16594;30,55250;0,40238;1,00000;3
151,13253;30,55583;0,40357;1,00000;3
151,09929;30,55917;0,40483;1,00000;3
151,06606;30,56250;0,40616;1,00000;3
151,03265;30,56583;0,40748;1,00000;3
150,99924;30,56917;0,40935;1,00000;3
150,96588;30,57250;0,41114;1,00000;3
150,93259;30,57583;0,41280;1,00000;3
150,89918;30,57917;0,41433;1,00000;3
150,86582;30,58250;0,41579;1,00000;3
150,83241;30,58583;0,41719;1,00000;3
150,79906;30,58917;0,41851;1,00000;3
150,76577;30,59250;0,41997;1,00000;3
150,73247;30,59583;0,42157;1,00000;3
150,69924;30,59917;0,42323;1,00000;3
150,66588;30,60250;0,42476;1,00000;3
150,63247;30,60583;0,42635;1,00000;3
150,59912;30,60917;0,42801;1,00000;3
150,56577;30,61250;0,42967;1,00000;3
150,53235;30,61583;0,43140;1,00000;3
150,49894;30,61917;0,43333;1,00000;3
150,46559;30,62250;0,43513;1,00000;3
150,43224;30,62583;0,43706;1,00000;3
150,39894;30,62917;0,43892;1,00000;3
150,36553;30,63250;0,44065;1,00000;3
150,33224;30,63583;0,44238;1,00000;3
150,29888;30,63917;0,44411;1,00000;3
150,26559;30,64250;0,44564;1,00000;3
150,23235;30,64583;0,44736;1,00000;3
150,19906;30,64917;0,44929;1,00000;3
150,16571;30,65250;0,45136;1,00000;3
150,13235;30,65583;0,45342;1,00000;3
150,09900;30,65917;0,45542;1,00000;3
150,06576;30,66250;0,45755;1,00000;3
150,03247;30,66583;0,45941;1,00000;3
149,99918;30,66917;0,46141;1,00000;3
149,96582;30,67250;0,46381;1,00000;3
149,93247;30,67583;0,46621;1,00000;3
149,89918;30,67917;0,46841;1,00000;3
149,86588;30,68250;0,47060;1,00000;3
149,83259;30,68583;0,47273;1,00000;3
149,79935;30,68917;0,47487;1,00000;3
149,76612;30,69250;0,47706;1,00000;3
149,73282;30,69583;0,47926;1,00000;3
149,69953;30,69917;0,48153;1,00000;3
149,66624;30,70250;0,48372;1,00000;3
149,63294;30,70583;0,48599;1,00000;3
149,59959;30,70917;0,48825;1,00000;3
149,56624;30,71250;0,49059;1,00000;3
149,53294;30,71583;0,49292;1,00000;3
149,49959;30,71917;0,49559;1,00000;3
149,46624;30,72250;0,49812;1,00000;3
149,43294;30,72583;0,50059;1,00000;3
149,39965;30,72917;0,50305;1,00000;3
149,36630;30,73250;0,50545;1,00000;3
149,33300;30,73583;0,50805;1,00000;3
149,29965;30,73917;0,51072;1,00000;3
149,26624;30,74250;0,51325;1,00000;3
149,23288;30,74583;0,51592;1,00000;3
149,19947;30,74917;0,51859;1,00000;3
149,16612;30,75250;0,52159;1,00000;3
149,13271;30,75583;0,52439;1,00000;3
149,09930;30,75917;0,52706;1,00000;3
149,06588;30,76250;0,52973;1,00000;3
149,03259;30,76583;0,53239;1,00000;3
148,99930;30,76917;0,53513;1,00000;3
148,96594;30,77250;0,53793;1,00000;3
148,93259;30,77583;0,54073;1,00000;3
148,89929;30,77917;0,54360;1,00000;3
148,86588;30,78250;0,54660;1,00000;3
148,83253;30,78583;0,54954;1,00000;3
148,79924;30,78917;0,55240;1,00000;3
148,76588;30,79250;0,55521;1,00000;3
148,73259;30,79583;0,55814;1,00000;3
148,69924;30,79917;0,56128;1,00000;3
148,66588;30,80250;0,56455;1,00000;3
148,63247;30,80583;0,56789;1,00000;3
148,59912;30,80917;0,57116;1,00000;3
148,56582;30,81250;0,57436;1,00000;3
148,53259;30,81583;0,57736;1,00000;3
148,49924;30,81917;0,58037;1,00000;3
148,46594;30,82250;0,58344;1,00000;3
148,43253;30,82583;0,58657;1,00000;3
148,39923;30,82917;0,58998;1,00000;3
148,36600;30,83250;0,59358;1,00000;3
148,33265;30,83583;0,59692;1,00000;3
148,29941;30,83917;0,60019;1,00000;3
148,26612;30,84250;0,60353;1,00000;3
148,23276;30,84583;0,60700;1,00000;3
148,19947;30,84917;0,61041;1,00000;3
148,16618;30,85250;0,61394;1,00000;3
148,13294;30,85583;0,61742;1,00000;3
148,09965;30,85917;0,62076;1,00000;3
148,06641;30,86250;0,62416;1,00000;3
148,03317;30,86583;0,62763;1,00000;3
148,00000;30,86917;0,63124;1,00000;3
147,96665;30,87250;0,63491;1,00000;3
147,93347;30,87583;0,63858;1,00000;3
147,90012;30,87917;0,64232;1,00000;3
147,86700;30,88250;0,64613;1,00000;3
147,83371;30,88583;0,64987;1,00000;3
147,80029;30,88917;0,65368;1,00000;3
147,76700;30,89250;0,65755;1,00000;3
147,73359;30,89583;0,66143;1,00000;3
147,70029;30,89917;0,66523;1,00000;3
147,66700;30,90250;0,66911;1,00000;3
147,63359;30,90583;0,67305;1,00000;3
147,60023;30,90917;0,67706;1,00000;3
147,56688;30,91250;0,68093;1,00000;3
147,53353;30,91583;0,68487;1,00000;3
147,50018;30,91917;0,68908;1,00000;3
147,46682;30,92250;0,69329;1,00000;3
147,43335;30,92583;0,69750;1,00000;3
147,40000;30,92917;0,70171;1,00000;3
147,36653;30,93250;0,70578;1,00000;3
147,33312;30,93583;0,70979;1,00000;3
147,29965;30,93917;0,71380;1,00000;3
147,26629;30,94250;0,71788;1,00000;3
147,23300;30,94583;0,72208;1,00000;3
147,19971;30,94917;0,72629;1,00000;3
147,16641;30,95250;0,73044;1,00000;3
147,13306;30,95583;0,73451;1,00000;3
147,09976;30,95917;0,73872;1,00000;3
147,06647;30,96250;0,74326;1,00000;3
147,03318;30,96583;0,74781;1,00000;3
146,99982;30,96917;0,75222;1,00000;3
146,96647;30,97250;0,75650;1,00000;3
146,93318;30,97583;0,76077;1,00000;3
146,89982;30,97917;0,76498;1,00000;3
146,86653;30,98250;0,76919;1,00000;3
146,83324;30,98583;0,77340;1,00000;3
146,79994;30,98917;0,77761;1,00000;3
146,76677;30,99250;0,78189;1,00000;3
146,73347;30,99583;0,78616;1,00000;3
146,70018;30,99917;0,79044;1,00000;3
146,66683;31,00250;0,79478;1,00000;3
146,63347;31,00583;0,79913;1,00000;3
146,60018;31,00917;0,80360;1,00000;3
146,56683;31,01250;0,80808;1,00000;3
146,53353;31,01583;0,81249;1,00000;3
146,50024;31,01917;0,81677;1,00000;3
146,46694;31,02250;0,82118;1,00000;3
146,43365;31,02583;0,82559;1,00000;3
146,40041;31,02917;0,83000;1,00000;3
146,36718;31,03250;0,83448;1,00000;3
146,33388;31,03583;0,83895;1,00000;3
146,30059;31,03917;0,84336;1,00000;3
146,26724;31,04250;0,84804;1,00000;3
146,23400;31,04583;0,85265;1,00000;3
146,20059;31,04917;0,85727;1,00000;3
146,16724;31,05250;0,86181;1,00000;3
146,13388;31,05583;0,86636;1,00000;3
146,10059;31,05917;0,87077;1,00000;3
146,06729;31,06250;0,87498;1,00000;3
146,03394;31,06583;0,87925;1,00000;3
146,00059;31,06917;0,88353;1,00000;3
145,96718;31,07250;0,88787;1,00000;3
145,93388;31,07583;0,89235;1,00000;3
145,90047;31,07917;0,89683;1,00000;3
145,86718;31,08250;0,90130;1,00000;3
145,83382;31,08583;0,90578;1,00000;3
145,80035;31,08917;0,91026;1,00000;3
145,76700;31,09250;0,91474;1,00000;3
145,73365;31,09583;0,91921;1,00000;3
145,70029;31,09917;0,92349;1,00000;3
145,66694;31,10250;0,92770;1,00000;3
145,63365;31,10583;0,93198;1,00000;3
145,60035;31,10917;0,93632;1,00000;3
145,56694;31,11250;0,94080;1,00000;3
145,53359;31,11583;0,94521;1,00000;3
145,50023;31,11917;0,94962;1,00000;3
145,46688;31,12250;0,95409;1,00000;3
145,43353;31,12583;0,95837;1,00000;3
145,40023;31,12917;0,96265;1,00000;3
145,36676;31,13250;0,96666;1,00000;3
145,33353;31,13583;0,97066;1,00000;3
145,30018;31,13917;0,97481;1,00000;3
145,26688;31,14250;0,97908;1,00000;3
145,23359;31,14583;0,98329;1,00000;3
145,20029;31,14917;0,98743;1,00000;3
145,16700;31,15250;0,99164;1,00000;3
145,13376;31,15583;0,99579;1,00000;3
145,10041;31,15917;0,99966;1,00000;3
145,06712;31,16250;1,00347;1,00000;3
145,03382;31,16583;1,00734;1,00000;3
145,00059;31,16917;1,01128;1,00000;3
144,96729;31,17250;1,01502;1,00000;3
144,93400;31,17583;1,01890;1,00000;3
144,90071;31,17917;1,02284;1,00000;3
144,86747;31,18250;1,02671;1,00000;3
144,83418;31,18583;1,03052;1,00000;3
144,80094;31,18917;1,03412;1,00000;3
144,76765;31,19250;1,03760;1,00000;3
144,73435;31,19583;1,04107;1,00000;3
144,70100;31,19917;1,04447;1,00000;3
144,66771;31,20250;1,04808;1,00000;3
144,63441;31,20583;1,05168;1,00000;3
144,60118;31,20917;1,05516;1,00000;3
144,56788;31,21250;1,05863;1,00000;3
144,53465;31,21583;1,06183;1,00000;3
144,50129;31,21917;1,06504;1,00000;3
144,46800;31,22250;1,06831;1,00000;3
144,43470;31,22583;1,07151;1,00000;3
144,40141;31,22917;1,07465;1,00000;3
144,36806;31,23250;1,07765;1,00000;3
144,33476;31,23583;1,08045;1,00000;3
144,30141;31,23917;1,08345;1,00000;3
144,26812;31,24250;1,08652;1,00000;3
144,23476;31,24583;1,08966;1,00000;3
144,20129;31,24917;1,09280;1,00000;3
144,16800;31,25250;1,09580;1,00000;3
144,13470;31,25583;1,09873;1,00000;3
144,10135;31,25917;1,10120;1,00000;3
144,06800;31,26250;1,10353;1,00000;3
144,03459;31,26583;1,10573;1,00000;3
144,00117;31,26917;1,10813;1,00000;3
143,96776;31,27250;1,11060;1,00000;3
143,93441;31,27583;1,11306;1,00000;3
143,90094;31,27917;1,11546;1,00000;3
143,86759;31,28250;1,11786;1,00000;3
143,83417;31,28583;1,12019;1,00000;3
143,80082;31,28917;1,12232;1,00000;3
143,76753;31,29250;1,12399;1,00000;3
143,73423;31,29583;1,12598;1,00000;3
143,70082;31,29917;1,12818;1,00000;3
143,66753;31,30250;1,13024;1,00000;3
143,63429;31,30583;1,13197;1,00000;3
143,60088;31,30917;1,13357;1,00000;3
143,56753;31,31250;1,13523;1,00000;3
143,53424;31,31583;1,13689;1,00000;3
143,50094;31,31917;1,13828;1,00000;3
143,46759;31,32250;1,13968;1,00000;3
143,43424;31,32583;1,14100;1,00000;3
143,40094;31,32917;1,14213;1,00000;3
143,36771;31,33250;1,14352;1,00000;3
143,33447;31,33583;1,14492;1,00000;3
143,30118;31,33917;1,14631;1,00000;3
143,26794;31,34250;1,14757;1,00000;3
143,23459;31,34583;1,14883;1,00000;3
143,20124;31,34917;1,14975;1,00000;3
143,16788;31,35250;1,15041;1,00000;3
143,13459;31,35583;1,15120;1,00000;3
143,10123;31,35917;1,15192;1,00000;3
143,06788;31,36250;1,15258;1,00000;3
143,03453;31,36583;1,15297;1,00000;3
143,00118;31,36917;1,15356;1,00000;3
142,96788;31,37250;1,15388;1,00000;3
142,93447;31,37583;1,15406;1,00000;3
142,90118;31,37917;1,15432;1,00000;3
142,86782;31,38250;1,15464;1,00000;3
142,83441;31,38583;1,15489;1,00000;3
142,80100;31,38917;1,15508;1,00000;3
142,76770;31,39250;1,15500;1,00000;3
142,73429;31,39583;1,15492;1,00000;3
142,70076;31,39917;1,15490;1,00000;3
142,66741;31,40250;1,15489;1,00000;3
142,63400;31,40583;1,15487;1,00000;3
142,60065;31,40917;1,15472;1,00000;3
142,56723;31,41250;1,15458;1,00000;3
142,53388;31,41583;1,15389;1,00000;3
142,50053;31,41917;1,15334;1,00000;3
142,46723;31,42250;1,15272;1,00000;3
142,43382;31,42583;1,15217;1,00000;3
142,40035;31,42917;1,15135;1,00000;3
142,36694;31,43250;1,15067;1,00000;3
142,33347;31,43583;1,14998;1,00000;3
142,30012;31,43917;1,14903;1,00000;3
142,26670;31,44250;1,14788;1,00000;3
142,23329;31,44583;1,14666;1,00000;3
142,19982;31,44917;1,14557;1,00000;3
142,16641;31,45250;1,14448;1,00000;3
142,13312;31,45583;1,14313;1,00000;3
142,09976;31,45917;1,14170;1,00000;3
142,06635;31,46250;1,14055;1,00000;3
142,03294;31,46583;1,13919;1,00000;3
141,99953;31,46917;1,13764;1,00000;3
141,96612;31,47250;1,13601;1,00000;3
141,93271;31,47583;1,13426;1,00000;3
141,89923;31,47917;1,13277;1,00000;3
141,86594;31,48250;1,13121;1,00000;3
141,83259;31,48583;1,12966;1,00000;3
141,79923;31,48917;1,12790;1,00000;3
141,76588;31,49250;1,12607;1,00000;3
141,73259;31,49583;1,12432;1,00000;3
141,69935;31,49917;1,12236;1,00000;3
141,66612;31,50250;1,12033;1,00000;3
141,63276;31,50583;1,11837;1,00000;3
141,59953;31,50917;1,11628;1,00000;3
141,56612;31,51250;1,11365;1,00000;3
141,53271;31,51583;1,11129;1,00000;3
141,49935;31,51917;1,10906;1,00000;3
141,46600;31,52250;1,10697;1,00000;3
141,43271;31,52583;1,10448;1,00000;3
141,39941;31,52917;1,10218;1,00000;3
141,36606;31,53250;1,09969;1,00000;3
141,33276;31,53583;1,09726;1,00000;3
141,29935;31,53917;1,09470;1,00000;3
141,26600;31,54250;1,09214;1,00000;3
141,23270;31,54583;1,08924;1,00000;3
141,19935;31,54917;1,08648;1,00000;3
141,16594;31,55250;1,08385;1,00000;3
141,13247;31,55583;1,08108;1,00000;3
141,09900;31,55917;1,07825;1,00000;3
141,06565;31,56250;1,07542;1,00000;3
141,03224;31,56583;1,07253;1,00000;3
140,99894;31,56917;1,06963;1,00000;3
140,96565;31,57250;1,06680;1,00000;3
140,93235;31,57583;1,06404;1,00000;3
140,89906;31,57917;1,06127;1,00000;3
140,86571;31,58250;1,05831;1,00000;3
140,83241;31,58583;1,05528;1,00000;3
140,79912;31,58917;1,05218;1,00000;3
140,76577;31,59250;1,04901;1,00000;3
140,73247;31,59583;1,04571;1,00000;3
140,69912;31,59917;1,04248;1,00000;3
140,66571;31,60250;1,03925;1,00000;3
140,63241;31,60583;1,03595;1,00000;3
140,59906;31,60917;1,03265;1,00000;3
140,56576;31,61250;1,02942;1,00000;3
140,53247;31,61583;1,02619;1,00000;3
140,49924;31,61917;1,02289;1,00000;3
140,46588;31,62250;1,01959;1,00000;3
140,43259;31,62583;1,01622;1,00000;3
140,39929;31,62917;1,01272;1,00000;3
140,36588;31,63250;1,00922;1,00000;3
140,33247;31,63583;1,00572;1,00000;3
140,29912;31,63917;1,00229;1,00000;3
140,26571;31,64250;0,99878;1,00000;3
140,23235;31,64583;0,99528;1,00000;3
140,19912;31,64917;0,99178;1,00000;3
140,16577;31,65250;0,98835;1,00000;3
140,13247;31,65583;0,98498;1,00000;3
140,09918;31,65917;0,98148;1,00000;3
140,06582;31,66250;0,97798;1,00000;3
140,03247;31,66583;0,97455;1,00000;3
139,99912;31,66917;0,97105;1,00000;3
139,96582;31,67250;0,96755;1,00000;3
139,93241;31,67583;0,96398;1,00000;3
139,89912;31,67917;0,96035;1,00000;3
139,86576;31,68250;0,95671;1,00000;3
139,83241;31,68583;0,95314;1,00000;3
139,79923;31,68917;0,94964;1,00000;3
139,76594;31,69250;0,94608;1,00000;3
139,73270;31,69583;0,94244;1,00000;3
139,69941;31,69917;0,93887;1,00000;3
139,66612;31,70250;0,93531;1,00000;3
139,63264;31,70583;0,93167;1,00000;3
139,59929;31,70917;0,92810;1,00000;3
139,56594;31,71250;0,92447;1,00000;3
139,53264;31,71583;0,92097;1,00000;3
139,49929;31,71917;0,91767;1,00000;3
139,46594;31,72250;0,91424;1,00000;3
139,43259;31,72583;0,91087;1,00000;3
139,39912;31,72917;0,90744;1,00000;3
139,36576;31,73250;0,90380;1,00000;3
139,33235;31,73583;0,90003;1,00000;3
139,29906;31,73917;0,89626;1,00000;3
139,26570;31,74250;0,89243;1,00000;3
139,23223;31,74583;0,88879;1,00000;3
139,19900;31,74917;0,88536;1,00000;3
139,16553;31,75250;0,88179;1,00000;3
139,13212;31,75583;0,87829;1,00000;3
139,09871;31,75917;0,87472;1,00000;3
139,06541;31,76250;0,87122;1,00000;3
139,03200;31,76583;0,86766;1,00000;3
138,99871;31,76917;0,86415;1,00000;3
138,96535;31,77250;0,86065;1,00000;3
138,93206;31,77583;0,85736;1,00000;3
138,89877;31,77917;0,85419;1,00000;3
138,86547;31,78250;0,85089;1,00000;3
138,83224;31,78583;0,84759;1,00000;3
138,79888;31,78917;0,84422;1,00000;3
138,76565;31,79250;0,84099;1,00000;3
138,73229;31,79583;0,83769;1,00000;3
138,69894;31,79917;0,83433;1,00000;3
138,66565;31,80250;0,83096;1,00000;3
138,63218;31,80583;0,82766;1,00000;3
138,59888;31,80917;0,82443;1,00000;3
138,56565;31,81250;0,82113;1,00000;3
138,53241;31,81583;0,81783;1,00000;3
138,49918;31,81917;0,81453;1,00000;3
138,46594;31,82250;0,81110;1,00000;3
138,43259;31,82583;0,80760;1,00000;3
138,39929;31,82917;0,80416;1,00000;3
138,36594;31,83250;0,80086;1,00000;3
138,33265;31,83583;0,79790;1,00000;3
138,29941;31,83917;0,79487;1,00000;3
138,26612;31,84250;0,79184;1,00000;3
138,23282;31,84583;0,78860;1,00000;3
138,19941;31,84917;0,78551;1,00000;3
138,16618;31,85250;0,78234;1,00000;3
138,13300;31,85583;0,77911;1,00000;3
138,09982;31,85917;0,77588;1,00000;3
138,06665;31,86250;0,77271;1,00000;3
138,03341;31,86583;0,76955;1,00000;3
138,00006;31,86917;0,76651;1,00000;3
137,96676;31,87250;0,76342;1,00000;3
137,93341;31,87583;0,76025;1,00000;3
137,90024;31,87917;0,75729;1,00000;3
137,86694;31,88250;0,75446;1,00000;3
137,83365;31,88583;0,75183;1,00000;3
137,80035;31,88917;0,74893;1,00000;3
137,76700;31,89250;0,74583;1,00000;3
137,73365;31,89583;0,74287;1,00000;3
137,70029;31,89917;0,73984;1,00000;3
137,66694;31,90250;0,73687;1,00000;3
137,63365;31,90583;0,73411;1,00000;3
137,60023;31,90917;0,73141;1,00000;3
137,56682;31,91250;0,72858;1,00000;3
137,53341;31,91583;0,72568;1,00000;3
137,50000;31,91917;0,72272;1,00000;3
137,46659;31,92250;0,71976;1,00000;3
137,43324;31,92583;0,71679;1,00000;3
137,39982;31,92917;0,71383;1,00000;3
137,36653;31,93250;0,71106;1,00000;3
137,33312;31,93583;0,70830;1,00000;3
137,29982;31,93917;0,70554;1,00000;3
137,26653;31,94250;0,70284;1,00000;3
137,23318;31,94583;0,70008;1,00000;3
137,19988;31,94917;0,69745;1,00000;3
137,16653;31,95250;0,69496;1,00000;3
137,13324;31,95583;0,69246;1,00000;3
137,09988;31,95917;0,68997;1,00000;3
137,06659;31,96250;0,68747;1,00000;3
137,03324;31,96583;0,68491;1,00000;3
136,99988;31,96917;0,68221;1,00000;3
136,96653;31,97250;0,67965;1,00000;3
136,93318;31,97583;0,67702;1,00000;3
136,89988;31,97917;0,67446;1,00000;3
136,86653;31,98250;0,67210;1,00000;3
136,83318;31,98583;0,66954;1,00000;3
136,79977;31,98917;0,66691;1,00000;3
136,76641;31,99250;0,66435;1,00000;3
136,73300;31,99583;0,66172;1,00000;3
136,69971;31,99917;0,65922;1,00000;3
136,66641;32,00250;0,65666;1,00000;3
136,63312;32,00583;0,65410;1,00000;3
136,59976;32,00917;0,65160;1,00000;3
136,56641;32,01250;0,64924;1,00000;3
136,53324;32,01583;0,64688;1,00000;3
136,49994;32,01917;0,64452;1,00000;3
136,46659;32,02250;0,64223;1,00000;3
136,43329;32,02583;0,63987;1,00000;3
136,40000;32,02917;0,63744;1,00000;3
136,36676;32,03250;0,63508;1,00000;3
136,33347;32,03583;0,63272;1,00000;3
136,30029;32,03917;0,63076;1,00000;3
136,26706;32,04250;0,62873;1,00000;3
136,23371;32,04583;0,62664;1,00000;3
136,20035;32,04917;0,62441;1,00000;3
136,16706;32,05250;0,62225;1,00000;3
136,13365;32,05583;0,62003;1,00000;3
136,10035;32,05917;0,61773;1,00000;3
136,06706;32,06250;0,61517;1,00000;3
136,03377;32,06583;0,61268;1,00000;3
136,00047;32,06917;0,61038;1,00000;3
135,96706;32,07250;0,60809;1,00000;3
135,93377;32,07583;0,60586;1,00000;3
135,90053;32,07917;0,60364;1,00000;3
135,86724;32,08250;0,60141;1,00000;3
135,83382;32,08583;0,59925;1,00000;3
135,80041;32,08917;0,59722;1,00000;3
135,76700;32,09250;0,59553;1,00000;3
135,73347;32,09583;0,59357;1,00000;3
135,70000;32,09917;0,59155;1,00000;3
135,66665;32,10250;0,58946;1,00000;3
135,63329;32,10583;0,58736;1,00000;3
135,59988;32,10917;0,58520;1,00000;3
135,56653;32,11250;0,58304;1,00000;3
135,53312;32,11583;0,58102;1,00000;3
135,49971;32,11917;0,57893;1,00000;3
135,46635;32,12250;0,57683;1,00000;3
135,43294;32,12583;0,57481;1,00000;3
135,39959;32,12917;0,57278;1,00000;3
135,36612;32,13250;0,57076;1,00000;3
135,33276;32,13583;0,56873;1,00000;3
135,29929;32,13917;0,56684;1,00000;3
135,26594;32,14250;0,56501;1,00000;3
135,23259;32,14583;0,56299;1,00000;3
135,19929;32,14917;0,56103;1,00000;3
135,16606;32,15250;0,55927;1,00000;3
135,13276;32,15583;0,55752;1,00000;3
135,09947;32,15917;0,55582;1,00000;3
135,06612;32,16250;0,55400;1,00000;3
135,03288;32,16583;0,55211;1,00000;3
134,99953;32,16917;0,55015;1,00000;3
134,96617;32,17250;0,54833;1,00000;3
134,93294;32,17583;0,54643;1,00000;3
134,89965;32,17917;0,54448;1,00000;3
134,86635;32,18250;0,54252;1,00000;3
134,83312;32,18583;0,54056;1,00000;3
134,79982;32,18917;0,53873;1,00000;3
134,76653;32,19250;0,53698;1,00000;3
134,73329;32,19583;0,53529;1,00000;3
134,70006;32,19917;0,53360;1,00000;3
134,66682;32,20250;0,53191;1,00000;3
134,63353;32,20583;0,53022;1,00000;3
134,60024;32,20917;0,52866;1,00000;3
134,56700;32,21250;0,52704;1,00000;3
134,53371;32,21583;0,52535;1,00000;3
134,50047;32,21917;0,52366;1,00000;3
134,46718;32,22250;0,52170;1,00000;3
134,43382;32,22583;0,51974;1,00000;3
134,40059;32,22917;0,51798;1,00000;3
134,36724;32,23250;0,51616;1,00000;3
134,33388;32,23583;0,51440;1,00000;3
134,30059;32,23917;0,51257;1,00000;3
134,26729;32,24250;0,51075;1,00000;3
134,23394;32,24583;0,50893;1,00000;3
134,20059;32,24917;0,50723;1,00000;3
134,16724;32,25250;0,50541;1,00000;3
134,13388;32,25583;0,50379;1,00000;3
134,10047;32,25917;0,50223;1,00000;3
134,06712;32,26250;0,50074;1,00000;3
134,03376;32,26583;0,49918;1,00000;3
134,00035;32,26917;0,49750;1,00000;3
133,96706;32,27250;0,49580;1,00000;3
133,93371;32,27583;0,49418;1,00000;3
133,90029;32,27917;0,49262;1,00000;3
133,86694;32,28250;0,49100;1,00000;3
133,83353;32,28583;0,48931;1,00000;3
133,80012;32,28917;0,48762;1,00000;3
133,76671;32,29250;0,48600;1,00000;3
133,73329;32,29583;0,48451;1,00000;3
133,69988;32,29917;0,48302;1,00000;3
133,66659;32,30250;0,48146;1,00000;3
133,63318;32,30583;0,47991;1,00000;3
133,59982;32,30917;0,47821;1,00000;3
133,56647;32,31250;0,47652;1,00000;3
133,53312;32,31583;0,47510;1,00000;3
133,49976;32,31917;0,47381;1,00000;3
133,46641;32,32250;0,47246;1,00000;3
133,43312;32,32583;0,47104;1,00000;3
133,39965;32,32917;0,46961;1,00000;3
133,36624;32,33250;0,46819;1,00000;3
133,33288;32,33583;0,46677;1,00000;3
133,29959;32,33917;0,46528;1,00000;3
133,26629;32,34250;0,46372;1,00000;3
133,23306;32,34583;0,46224;1,00000;3
133,19982;32,34917;0,46068;1,00000;3
133,16653;32,35250;0,45919;1,00000;3
133,13324;32,35583;0,45770;1,00000;3
133,09988;32,35917;0,45621;1,00000;3
133,06653;32,36250;0,45472;1,00000;3
133,03318;32,36583;0,45323;1,00000;3
132,99988;32,36917;0,45174;1,00000;3
132,96653;32,37250;0,45046;1,00000;3
132,93318;32,37583;0,44917;1,00000;3
132,89982;32,37917;0,44795;1,00000;3
132,86647;32,38250;0,44666;1,00000;3
132,83318;32,38583;0,44530;1,00000;3
132,79982;32,38917;0,44388;1,00000;3
132,76653;32,39250;0,44252;1,00000;3
132,73318;32,39583;0,44124;1,00000;3
132,69988;32,39917;0,43981;1,00000;3
132,66647;32,40250;0,43833;1,00000;3
132,63312;32,40583;0,43690;1,00000;3
132,59976;32,40917;0,43555;1,00000;3
132,56635;32,41250;0,43419;1,00000;3
132,53294;32,41583;0,43270;1,00000;3
132,49965;32,41917;0,43142;1,00000;3
132,46641;32,42250;0,43006;1,00000;3
132,43312;32,42583;0,42871;1,00000;3
132,39982;32,42917;0,42755;1,00000;3
132,36653;32,43250;0,42633;1,00000;3
132,33318;32,43583;0,42504;1,00000;3
132,29976;32,43917;0,42375;1,00000;3
132,26641;32,44250;0,42240;1,00000;3
132,23318;32,44583;0,42104;1,00000;3
132,19988;32,44917;0,41962;1,00000;3
132,16665;32,45250;0,41827;1,00000;3
132,13329;32,45583;0,41691;1,00000;3
132,09994;32,45917;0,41556;1,00000;3
132,06659;32,46250;0,41447;1,00000;3
132,03324;32,46583;0,41338;1,00000;3
131,99988;32,46917;0,41229;1,00000;3
131,96671;32,47250;0,41127;1,00000;3
131,93335;32,47583;0,40999;1,00000;3
131,89994;32,47917;0,40863;1,00000;3
131,86653;32,48250;0,40728;1,00000;3
131,83324;32,48583;0,40579;1,00000;3
131,79982;32,48917;0,40436;1,00000;3
131,76653;32,49250;0,40308;1,00000;3
131,73324;32,49583;0,40179;1,00000;3
131,69988;32,49917;0,40050;1,00000;3
131,66647;32,50250;0,39935;1,00000;3
131,63306;32,50583;0,39812;1,00000;3
131,59959;32,50917;0,39697;1,00000;3
131,56624;32,51250;0,39622;1,00000;3
131,53294;32,51583;0,39533;1,00000;3
131,49959;32,51917;0,39431;1,00000;3
131,46630;32,52250;0,39323;1,00000;3
131,43288;32,52583;0,39214;1,00000;3
131,39935;32,52917;0,39112;1,00000;3
131,36600;32,53250;0,39003;1,00000;3
131,33265;32,53583;0,38888;1,00000;3
131,29923;32,53917;0,38772;1,00000;3
131,26582;32,54250;0,38657;1,00000;3
131,23253;32,54583;0,38535;1,00000;3
131,19912;32,54917;0,38419;1,00000;3
131,16576;32,55250;0,38297;1,00000;3
131,13247;32,55583;0,38175;1,00000;3
131,09912;32,55917;0,38060;1,00000;3
131,06582;32,56250;0,37944;1,00000;3
131,03253;32,56583;0,37836;1,00000;3
130,99918;32,56917;0,37727;1,00000;3
130,96582;32,57250;0,37612;1,00000;3
130,93253;32,57583;0,37503;1,00000;3
130,89924;32,57917;0,37401;1,00000;3
130,86594;32,58250;0,37292;1,00000;3
130,83277;32,58583;0,37183;1,00000;3
130,79941;32,58917;0,37088;1,00000;3
130,76606;32,59250;0,37000;1,00000;3
130,73277;32,59583;0,36911;1,00000;3
130,69935;32,59917;0,36829;1,00000;3
130,66600;32,60250;0,36741;1,00000;3
130,63271;32,60583;0,36645;1,00000;3
130,59947;32,60917;0,36536;1,00000;3
130,56618;32,61250;0,36428;1,00000;3
130,53294;32,61583;0,36319;1,00000;3
130,49965;32,61917;0,36210;1,00000;3
130,46635;32,62250;0,36108;1,00000;3
130,43312;32,62583;0,36013;1,00000;3
130,39988;32,62917;0,35918;1,00000;3
130,36653;32,63250;0,35816;1,00000;3
130,33312;32,63583;0,35714;1,00000;3
130,29982;32,63917;0,35625;1,00000;3
130,26647;32,64250;0,35550;1,00000;3
130,23329;32,64583;0,35461;1,00000;3
130,20000;32,64917;0,35380;1,00000;3
130,16670;32,65250;0,35298;1,00000;3
130,13359;32,65583;0,35209;1,00000;3
130,10029;32,65917;0,35094;1,00000;3
130,06694;32,66250;0,34992;1,00000;3
130,03353;32,66583;0,34883;1,00000;3
130,00018;32,66917;0,34774;1,00000;3
129,96682;32,67250;0,34679;1,00000;3
129,93341;32,67583;0,34637;1,00000;3
129,90006;32,67917;0,34562;1,00000;3
129,86659;32,68250;0,34474;1,00000;3
129,83318;32,68583;0,34378;1,00000;3
129,79988;32,68917;0,34276;1,00000;3
129,76665;32,69250;0,34154;1,00000;3
129,73335;32,69583;0,34059;1,00000;3
129,69994;32,69917;0,33970;1,00000;3
129,66647;32,70250;0,33875;1,00000;3
129,63318;32,70583;0,33786;1,00000;3
129,59976;32,70917;0,33704;1,00000;3
129,56618;32,71250;0,33623;1,00000;3
129,53282;32,71583;0,33561;1,00000;3
129,49959;32,71917;0,33486;1,00000;3
129,46629;32,72250;0,33410;1,00000;3
129,43294;32,72583;0,33308;1,00000;3
129,39953;32,72917;0,33186;1,00000;3
129,36624;32,73250;0,33084;1,00000;3
129,33294;32,73583;0,33016;1,00000;3
129,29965;32,73917;0,32988;1,00000;3
129,26635;32,74250;0,32926;1,00000;3
129,23294;32,74583;0,32857;1,00000;3
129,19947;32,74917;0,32802;1,00000;3
129,16606;32,75250;0,32761;1,00000;3
129,13283;32,75583;0,32632;1,00000;3
129,09953;32,75917;0,32516;1,00000;3
129,06612;32,76250;0,32441;1,00000;3
129,03283;32,76583;0,32353;1,00000;3
128,99965;32,76917;0,32271;1,00000;3
128,96630;32,77250;0,32196;1,00000;3
128,93288;32,77583;0,32167;1,00000;3
128,89953;32,77917;0,32099;1,00000;3
128,86624;32,78250;0,32024;1,00000;3
128,83294;32,78583;0,31948;1,00000;3
128,79959;32,78917;0,31867;1,00000;3
128,76618;32,79250;0,31798;1,00000;3
128,73277;32,79583;0,31730;1,00000;3
128,69935;32,79917;0,31668;1,00000;3
128,66594;32,80250;0,31599;1,00000;3
128,63265;32,80583;0,31518;1,00000;3
128,59929;32,80917;0,31429;1,00000;3
128,56588;32,81250;0,31354;1,00000;3
128,53253;32,81583;0,31279;1,00000;3
128,49924;32,81917;0,31210;1,00000;3
128,46588;32,82250;0,31148;1,00000;3
128,43247;32,82583;0,31080;1,00000;3
128,39912;32,82917;0,31011;1,00000;3
128,36576;32,83250;0,30950;1,00000;3
128,33241;32,83583;0,30888;1,00000;3
128,29906;32,83917;0,30819;1,00000;3
128,26571;32,84250;0,30744;1,00000;3
128,23235;32,84583;0,30676;1,00000;3
128,19906;32,84917;0,30614;1,00000;3
128,16582;32,85250;0,30559;1,00000;3
128,13247;32,85583;0,30490;1,00000;3
128,09924;32,85917;0,30429;1,00000;3
128,06582;32,86250;0,30367;1,00000;3
128,03253;32,86583;0,30305;1,00000;3
127,99918;32,86917;0,30243;1,00000;3
127,96582;32,87250;0,30181;1,00000;3
127,93241;32,87583;0,30120;1,00000;3
127,89906;32,87917;0,30065;1,00000;3
127,86576;32,88250;0,30016;1,00000;3
127,83247;32,88583;0,29961;1,00000;3
127,79906;32,88917;0,29906;1,00000;3
127,76571;32,89250;0,29838;1,00000;3
127,73229;32,89583;0,29742;1,00000;3
127,69894;32,89917;0,29674;1,00000;3
127,66553;32,90250;0,29619;1,00000;3
127,63212;32,90583;0,29570;1,00000;3
127,59865;32,90917;0,29522;1,00000;3
127,56523;32,91250;0,29474;1,00000;3
127,53176;32,91583;0,29459;1,00000;3
127,49841;32,91917;0,29417;1,00000;3
127,46500;32,92250;0,29376;1,00000;3
127,43159;32,92583;0,29314;1,00000;3
127,39818;32,92917;0,29225;1,00000;3
127,36488;32,93250;0,29163;1,00000;3
127,33147;32,93583;0,29102;1,00000;3
127,29812;32,93917;0,29053;1,00000;3
127,26465;32,94250;0,28985;1,00000;3
127,23135;32,94583;0,28923;1,00000;3
127,19800;32,94917;0,28888;1,00000;3
127,16465;32,95250;0,28866;1,00000;3
127,13124;32,95583;0,28831;1,00000;3
127,09788;32,95917;0,28783;1,00000;3
127,06459;32,96250;0,28721;1,00000;3
127,03129;32,96583;0,28660;1,00000;3
126,99794;32,96917;0,28604;1,00000;3
126,96476;32,97250;0,28543;1,00000;3
126,93147;32,97583;0,28488;1,00000;3
126,89812;32,97917;0,28433;1,00000;3
126,86476;32,98250;0,28384;1,00000;3
126,83141;32,98583;0,28329;1,00000;3
126,79800;32,98917;0,28281;1,00000;3
126,76471;32,99250;0,28226;1,00000;3
126,73135;32,99583;0,28171;1,00000;3
126,69818;32,99917;0,28122;1,00000;3
126,66482;33,00250;0,28081;1,00000;3
126,63147;33,00583;0,28039;1,00000;3
126,59818;33,00917;0,27984;1,00000;3
126,56494;33,01250;0,27936;1,00000;3
126,53171;33,01583;0,27880;1,00000;3
126,49835;33,01917;0,27839;1,00000;3
126,46500;33,02250;0,27811;1,00000;3
126,43171;33,02583;0,27776;1,00000;3
126,39829;33,02917;0,27741;1,00000;3
126,36500;33,03250;0,27699;1,00000;3
126,33177;33,03583;0,27651;1,00000;3
126,29853;33,03917;0,27596;1,00000;3
126,26535;33,04250;0,27547;1,00000;3
126,23206;33,04583;0,27499;1,00000;3
126,19882;33,04917;0,27450;1,00000;3
126,16547;33,05250;0,27402;1,00000;3
126,13206;33,05583;0,27367;1,00000;3
126,09876;33,05917;0,27326;1,00000;3
126,06553;33,06250;0,27291;1,00000;3
126,03224;33,06583;0,27242;1,00000;3
125,99894;33,06917;0,27207;1,00000;3
125,96565;33,07250;0,27172;1,00000;3
125,93229;33,07583;0,27131;1,00000;3
125,89900;33,07917;0,27096;1,00000;3
125,86571;33,08250;0,27054;1,00000;3
125,83241;33,08583;0,27019;1,00000;3
125,79912;33,08917;0,26984;1,00000;3
125,76576;33,09250;0,26949;1,00000;3
125,73241;33,09583;0,26908;1,00000;3
125,69906;33,09917;0,26859;1,00000;3
125,66582;33,10250;0,26811;1,00000;3
125,63241;33,10583;0,26782;1,00000;3
125,59912;33,10917;0,26761;1,00000;3
125,56588;33,11250;0,26746;1,00000;3
125,53259;33,11583;0,26725;1,00000;3
125,49924;33,11917;0,26703;1,00000;3
125,46594;33,12250;0,26668;1,00000;3
125,43259;33,12583;0,26626;1,00000;3
125,39929;33,12917;0,26578;1,00000;3
125,36606;33,13250;0,26536;1,00000;3
125,33282;33,13583;0,26495;1,00000;3
125,29953;33,13917;0,26460;1,00000;3
125,26618;33,14250;0,26432;1,00000;3
125,23288;33,14583;0,26390;1,00000;3
125,19965;33,14917;0,26342;1,00000;3
125,16635;33,15250;0,26293;1,00000;3
125,13300;33,15583;0,26252;1,00000;3
125,09959;33,15917;0,26210;1,00000;3
125,06624;33,16250;0,26175;1,00000;3
125,03294;33,16583;0,26140;1,00000;3

