#EXPORTTYPE:DATA SINGLE
#FILE:AP52DE55 1%TRG 7,5K.ngb-sd7
#FORMAT:NETZSCH5
#FTYPE:ANSI
#IDENTITY:AP52DE55 1%TRG 7,5K
#DECIMAL:COMMA
#SEPARATOR:SEMICOLON
#MTYPE:DSC
#INSTRUMENT:NETZSCH DSC 204F1 Phoenix
#PROJECT:Gutkowski praca in¿
#DATE/TIME:13.01.2016 09:29
#CORR. FILE:
#TEMPCAL:TCALZERO.TMX
#SENSITIVITY:SENSZERO.EXX
#LABORATORY:206
#OPERATOR:MIC
#REMARK:
#SAMPLE:AP52DE55 1%TRG 7,5K
#SAMPLE MASS /mg:10,61
#MATERIAL:PU
#REFERENCE:correction
#REFERENCE MASS /mg:0
#TYPE OF CRUCIBLE:Pan Al, closed
#SAMPLE CRUCIBLE MASS /mg:0
#REFERENCE CRUCIBLE MASS /mg:39,35
#M.RANGE /µV:5000
#TAU-R:---
#CORR. CODE:000
#EXO:+1
#RANGE:15°C....250°C/-7,5....15,0K/min
#SEGMENT:S3/3
#SEG. 1:15°C/15,0(K/min)/250°C
#SEG. 2:250°C/00:05/250°C
#SEG. 3:250°C/7,5(K/min)/30°C

##Temp./°C;Time/min;DSC/(uV/mg);Sensit./(uV/mW);Segment
161,20088;32,50917;0,27306;1,00000;3
161,17583;32,51250;0,27319;1,00000;3
161,15088;32,51583;0,27339;1,00000;3
161,12588;32,51917;0,27374;1,00000;3
161,10100;32,52250;0,27402;1,00000;3
161,07612;32,52583;0,27415;1,00000;3
161,05112;32,52917;0,27428;1,00000;3
161,02600;32,53250;0,27434;1,00000;3
161,00100;32,53583;0,27447;1,00000;3
160,97594;32,53917;0,27453;1,00000;3
160,95088;32,54250;0,27474;1,00000;3
160,92594;32,54583;0,27494;1,00000;3
160,90100;32,54917;0,27515;1,00000;3
160,87606;32,55250;0,27535;1,00000;3
160,85123;32,55583;0,27555;1,00000;3
160,82629;32,55917;0,27576;1,00000;3
160,80135;32,56250;0,27604;1,00000;3
160,77635;32,56583;0,27610;1,00000;3
160,75141;32,56917;0,27630;1,00000;3
160,72647;32,57250;0,27650;1,00000;3
160,70153;32,57583;0,27664;1,00000;3
160,67641;32,57917;0,27698;1,00000;3
160,65135;32,58250;0,27712;1,00000;3
160,62641;32,58583;0,27718;1,00000;3
160,60147;32,58917;0,27731;1,00000;3
160,57653;32,59250;0,27737;1,00000;3
160,55147;32,59583;0,27743;1,00000;3
160,52641;32,59917;0,27756;1,00000;3
160,50135;32,60250;0,27784;1,00000;3
160,47629;32,60583;0,27797;1,00000;3
160,45123;32,60917;0,27825;1,00000;3
160,42612;32,61250;0,27831;1,00000;3
160,40106;32,61583;0,27844;1,00000;3
160,37606;32,61917;0,27850;1,00000;3
160,35112;32,62250;0,27870;1,00000;3
160,32618;32,62583;0,27891;1,00000;3
160,30123;32,62917;0,27918;1,00000;3
160,27629;32,63250;0,27939;1,00000;3
160,25141;32,63583;0,27959;1,00000;3
160,22647;32,63917;0,27987;1,00000;3
160,20153;32,64250;0,28007;1,00000;3
160,17659;32,64583;0,28028;1,00000;3
160,15165;32,64917;0,28034;1,00000;3
160,12671;32,65250;0,28025;1,00000;3
160,10188;32,65583;0,28017;1,00000;3
160,07694;32,65917;0,28023;1,00000;3
160,05194;32,66250;0,28029;1,00000;3
160,02706;32,66583;0,28042;1,00000;3
160,00218;32,66917;0,28056;1,00000;3
159,97723;32,67250;0,28090;1,00000;3
159,95235;32,67583;0,28154;1,00000;3
159,92741;32,67917;0,28182;1,00000;3
159,90241;32,68250;0,28202;1,00000;3
159,87729;32,68583;0,28215;1,00000;3
159,85218;32,68917;0,28236;1,00000;3
159,82723;32,69250;0,28285;1,00000;3
159,80218;32,69583;0,28320;1,00000;3
159,77706;32,69917;0,28340;1,00000;3
159,75194;32,70250;0,28368;1,00000;3
159,72676;32,70583;0,28395;1,00000;3
159,70171;32,70917;0,28416;1,00000;3
159,67653;32,71250;0,28436;1,00000;3
159,65147;32,71583;0,28449;1,00000;3
159,62641;32,71917;0,28434;1,00000;3
159,60135;32,72250;0,28433;1,00000;3
159,57629;32,72583;0,28439;1,00000;3
159,55118;32,72917;0,28452;1,00000;3
159,52600;32,73250;0,28501;1,00000;3
159,50082;32,73583;0,28543;1,00000;3
159,47577;32,73917;0,28578;1,00000;3
159,45077;32,74250;0,28591;1,00000;3
159,42571;32,74583;0,28597;1,00000;3
159,40059;32,74917;0,28617;1,00000;3
159,37565;32,75250;0,28638;1,00000;3
159,35065;32,75583;0,28658;1,00000;3
159,32565;32,75917;0,28664;1,00000;3
159,30065;32,76250;0,28678;1,00000;3
159,27559;32,76583;0,28691;1,00000;3
159,25059;32,76917;0,28704;1,00000;3
159,22559;32,77250;0,28739;1,00000;3
159,20059;32,77583;0,28766;1,00000;3
159,17559;32,77917;0,28794;1,00000;3
159,15059;32,78250;0,28822;1,00000;3
159,12565;32,78583;0,28849;1,00000;3
159,10071;32,78917;0,28884;1,00000;3
159,07577;32,79250;0,28904;1,00000;3
159,05071;32,79583;0,28925;1,00000;3
159,02565;32,79917;0,28945;1,00000;3
159,00065;32,80250;0,28951;1,00000;3
158,97565;32,80583;0,28965;1,00000;3
158,95053;32,80917;0,28992;1,00000;3
158,92547;32,81250;0,29027;1,00000;3
158,90041;32,81583;0,29047;1,00000;3
158,87541;32,81917;0,29061;1,00000;3
158,85047;32,82250;0,29074;1,00000;3
158,82547;32,82583;0,29080;1,00000;3
158,80035;32,82917;0,29093;1,00000;3
158,77535;32,83250;0,29121;1,00000;3
158,75030;32,83583;0,29155;1,00000;3
158,72518;32,83917;0,29212;1,00000;3
158,70006;32,84250;0,29261;1,00000;3
158,67500;32,84583;0,29289;1,00000;3
158,64982;32,84917;0,29316;1,00000;3
158,62482;32,85250;0,29337;1,00000;3
158,59988;32,85583;0,29357;1,00000;3
158,57494;32,85917;0,29392;1,00000;3
158,54982;32,86250;0,29427;1,00000;3
158,52477;32,86583;0,29461;1,00000;3
158,49977;32,86917;0,29489;1,00000;3
158,47471;32,87250;0,29510;1,00000;3
158,44965;32,87583;0,29530;1,00000;3
158,42453;32,87917;0,29558;1,00000;3
158,39953;32,88250;0,29592;1,00000;3
158,37459;32,88583;0,29620;1,00000;3
158,34953;32,88917;0,29655;1,00000;3
158,32447;32,89250;0,29675;1,00000;3
158,29953;32,89583;0,29703;1,00000;3
158,27459;32,89917;0,29730;1,00000;3
158,24959;32,90250;0,29765;1,00000;3
158,22471;32,90583;0,29800;1,00000;3
158,19977;32,90917;0,29828;1,00000;3
158,17471;32,91250;0,29848;1,00000;3
158,14971;32,91583;0,29883;1,00000;3
158,12471;32,91917;0,29910;1,00000;3
158,09971;32,92250;0,29945;1,00000;3
158,07471;32,92583;0,29966;1,00000;3
158,04977;32,92917;0,29993;1,00000;3
158,02477;32,93250;0,30028;1,00000;3
157,99977;32,93583;0,30063;1,00000;3
157,97471;32,93917;0,30076;1,00000;3
157,94971;32,94250;0,30104;1,00000;3
157,92471;32,94583;0,30138;1,00000;3
157,89971;32,94917;0,30173;1,00000;3
157,87471;32,95250;0,30201;1,00000;3
157,84959;32,95583;0,30236;1,00000;3
157,82453;32,95917;0,30278;1,00000;3
157,79947;32,96250;0,30320;1,00000;3
157,77435;32,96583;0,30347;1,00000;3
157,74924;32,96917;0,30368;1,00000;3
157,72412;32,97250;0,30402;1,00000;3
157,69912;32,97583;0,30437;1,00000;3
157,67406;32,97917;0,30465;1,00000;3
157,64894;32,98250;0,30507;1,00000;3
157,62382;32,98583;0,30556;1,00000;3
157,59882;32,98917;0,30591;1,00000;3
157,57388;32,99250;0,30626;1,00000;3
157,54888;32,99583;0,30668;1,00000;3
157,52388;32,99917;0,30717;1,00000;3
157,49894;33,00250;0,30744;1,00000;3
157,47400;33,00583;0,30750;1,00000;3
157,44906;33,00917;0,30756;1,00000;3
157,42412;33,01250;0,30770;1,00000;3
157,39912;33,01583;0,30804;1,00000;3
157,37412;33,01917;0,30847;1,00000;3
157,34918;33,02250;0,30874;1,00000;3
157,32429;33,02583;0,30959;1,00000;3
157,29929;33,02917;0,31023;1,00000;3
157,27429;33,03250;0,31043;1,00000;3
157,24941;33,03583;0,31042;1,00000;3
157,22453;33,03917;0,31091;1,00000;3
157,19965;33,04250;0,31133;1,00000;3
157,17465;33,04583;0,31182;1,00000;3
157,14953;33,04917;0,31232;1,00000;3
157,12447;33,05250;0,31281;1,00000;3
157,09941;33,05583;0,31316;1,00000;3
157,07435;33,05917;0,31358;1,00000;3
157,04929;33,06250;0,31400;1,00000;3
157,02418;33,06583;0,31434;1,00000;3
156,99912;33,06917;0,31484;1,00000;3
156,97412;33,07250;0,31526;1,00000;3
156,94918;33,07583;0,31575;1,00000;3
156,92406;33,07917;0,31624;1,00000;3
156,89900;33,08250;0,31673;1,00000;3
156,87400;33,08583;0,31722;1,00000;3
156,84900;33,08917;0,31764;1,00000;3
156,82394;33,09250;0,31799;1,00000;3
156,79882;33,09583;0,31834;1,00000;3
156,77382;33,09917;0,31876;1,00000;3
156,74882;33,10250;0,31903;1,00000;3
156,72388;33,10583;0,31938;1,00000;3
156,69894;33,10917;0,31973;1,00000;3
156,67394;33,11250;0,32008;1,00000;3
156,64900;33,11583;0,32057;1,00000;3
156,62400;33,11917;0,32106;1,00000;3
156,59900;33,12250;0,32155;1,00000;3
156,57412;33,12583;0,32205;1,00000;3
156,54912;33,12917;0,32247;1,00000;3
156,52412;33,13250;0,32296;1,00000;3
156,49929;33,13583;0,32338;1,00000;3
156,47435;33,13917;0,32387;1,00000;3
156,44941;33,14250;0,32422;1,00000;3
156,42441;33,14583;0,32464;1,00000;3
156,39947;33,14917;0,32506;1,00000;3
156,37453;33,15250;0,32541;1,00000;3
156,34953;33,15583;0,32582;1,00000;3
156,32453;33,15917;0,32624;1,00000;3
156,29959;33,16250;0,32659;1,00000;3
156,27459;33,16583;0,32701;1,00000;3
156,24959;33,16917;0,32743;1,00000;3
156,22459;33,17250;0,32785;1,00000;3
156,19965;33,17583;0,32842;1,00000;3
156,17464;33,17917;0,32884;1,00000;3
156,14964;33,18250;0,32926;1,00000;3
156,12470;33,18583;0,32968;1,00000;3
156,09965;33,18917;0,33017;1,00000;3
156,07459;33,19250;0,33073;1,00000;3
156,04953;33,19583;0,33122;1,00000;3
156,02447;33,19917;0,33179;1,00000;3
155,99947;33,20250;0,33249;1,00000;3
155,97447;33,20583;0,33306;1,00000;3
155,94959;33,20917;0,33362;1,00000;3
155,92453;33,21250;0,33411;1,00000;3
155,89959;33,21583;0,33468;1,00000;3
155,87459;33,21917;0,33517;1,00000;3
155,84965;33,22250;0,33573;1,00000;3
155,82471;33,22583;0,33630;1,00000;3
155,79971;33,22917;0,33679;1,00000;3
155,77471;33,23250;0,33728;1,00000;3
155,74988;33,23583;0,33777;1,00000;3
155,72494;33,23917;0,33826;1,00000;3
155,70000;33,24250;0,33868;1,00000;3
155,67506;33,24583;0,33918;1,00000;3
155,65006;33,24917;0,33981;1,00000;3
155,62512;33,25250;0,34023;1,00000;3
155,60024;33,25583;0,34072;1,00000;3
155,57529;33,25917;0,34121;1,00000;3
155,55035;33,26250;0,34178;1,00000;3
155,52535;33,26583;0,34234;1,00000;3
155,50047;33,26917;0,34283;1,00000;3
155,47553;33,27250;0,34361;1,00000;3
155,45059;33,27583;0,34454;1,00000;3
155,42565;33,27917;0,34517;1,00000;3
155,40071;33,28250;0,34574;1,00000;3
155,37571;33,28583;0,34630;1,00000;3
155,35071;33,28917;0,34694;1,00000;3
155,32559;33,29250;0,34743;1,00000;3
155,30053;33,29583;0,34814;1,00000;3
155,27547;33,29917;0,34877;1,00000;3
155,25053;33,30250;0,34948;1,00000;3
155,22559;33,30583;0,35011;1,00000;3
155,20059;33,30917;0,35075;1,00000;3
155,17553;33,31250;0,35131;1,00000;3
155,15053;33,31583;0,35202;1,00000;3
155,12541;33,31917;0,35266;1,00000;3
155,10035;33,32250;0,35322;1,00000;3
155,07529;33,32583;0,35393;1,00000;3
155,05024;33,32917;0,35471;1,00000;3
155,02518;33,33250;0,35549;1,00000;3
155,00018;33,33583;0,35605;1,00000;3
154,97518;33,33917;0,35669;1,00000;3
154,95023;33,34250;0,35739;1,00000;3
154,92529;33,34583;0,35796;1,00000;3
154,90029;33,34917;0,35866;1,00000;3
154,87529;33,35250;0,35937;1,00000;3
154,85035;33,35583;0,36008;1,00000;3
154,82535;33,35917;0,36064;1,00000;3
154,80041;33,36250;0,36142;1,00000;3
154,77541;33,36583;0,36206;1,00000;3
154,75041;33,36917;0,36269;1,00000;3
154,72547;33,37250;0,36340;1,00000;3
154,70059;33,37583;0,36411;1,00000;3
154,67559;33,37917;0,36503;1,00000;3
154,65065;33,38250;0,36588;1,00000;3
154,62571;33,38583;0,36674;1,00000;3
154,60077;33,38917;0,36737;1,00000;3
154,57571;33,39250;0,36815;1,00000;3
154,55071;33,39583;0,36893;1,00000;3
154,52571;33,39917;0,36971;1,00000;3
154,50077;33,40250;0,37049;1,00000;3
154,47583;33,40583;0,37120;1,00000;3
154,45088;33,40917;0,37198;1,00000;3
154,42588;33,41250;0,37283;1,00000;3
154,40088;33,41583;0,37389;1,00000;3
154,37577;33,41917;0,37496;1,00000;3
154,35077;33,42250;0,37603;1,00000;3
154,32583;33,42583;0,37695;1,00000;3
154,30071;33,42917;0,37780;1,00000;3
154,27571;33,43250;0,37873;1,00000;3
154,25077;33,43583;0,37951;1,00000;3
154,22571;33,43917;0,38036;1,00000;3
154,20071;33,44250;0,38121;1,00000;3
154,17565;33,44583;0,38206;1,00000;3
154,15065;33,44917;0,38298;1,00000;3
154,12553;33,45250;0,38383;1,00000;3
154,10047;33,45583;0,38476;1,00000;3
154,07535;33,45917;0,38568;1,00000;3
154,05029;33,46250;0,38653;1,00000;3
154,02529;33,46583;0,38753;1,00000;3
154,00024;33,46917;0,38852;1,00000;3
153,97518;33,47250;0,38952;1,00000;3
153,95024;33,47583;0,39058;1,00000;3
153,92529;33,47917;0,39151;1,00000;3
153,90035;33,48250;0,39250;1,00000;3
153,87541;33,48583;0,39350;1,00000;3
153,85035;33,48917;0,39449;1,00000;3
153,82535;33,49250;0,39549;1,00000;3
153,80035;33,49583;0,39655;1,00000;3
153,77535;33,49917;0,39762;1,00000;3
153,75041;33,50250;0,39862;1,00000;3
153,72547;33,50583;0,39968;1,00000;3
153,70065;33,50917;0,40082;1,00000;3
153,67577;33,51250;0,40189;1,00000;3
153,65077;33,51583;0,40310;1,00000;3
153,62577;33,51917;0,40453;1,00000;3
153,60082;33,52250;0,40574;1,00000;3
153,57594;33,52583;0,40659;1,00000;3
153,55094;33,52917;0,40751;1,00000;3
153,52594;33,53250;0,40851;1,00000;3
153,50082;33,53583;0,40950;1,00000;3
153,47577;33,53917;0,41050;1,00000;3
153,45077;33,54250;0,41171;1,00000;3
153,42577;33,54583;0,41328;1,00000;3
153,40065;33,54917;0,41464;1,00000;3
153,37565;33,55250;0,41570;1,00000;3
153,35059;33,55583;0,41677;1,00000;3
153,32553;33,55917;0,41791;1,00000;3
153,30047;33,56250;0,41905;1,00000;3
153,27530;33,56583;0,42026;1,00000;3
153,25018;33,56917;0,42154;1,00000;3
153,22524;33,57250;0,42311;1,00000;3
153,20030;33,57583;0,42454;1,00000;3
153,17518;33,57917;0,42589;1,00000;3
153,15006;33,58250;0,42732;1,00000;3
153,12506;33,58583;0,42867;1,00000;3
153,10000;33,58917;0,43010;1,00000;3
153,07506;33,59250;0,43138;1,00000;3
153,04994;33,59583;0,43274;1,00000;3
153,02494;33,59917;0,43416;1,00000;3
153,00000;33,60250;0,43545;1,00000;3
152,97512;33,60583;0,43666;1,00000;3
152,95024;33,60917;0,43801;1,00000;3
152,92524;33,61250;0,43937;1,00000;3
152,90024;33,61583;0,44087;1,00000;3
152,87524;33,61917;0,44236;1,00000;3
152,85035;33,62250;0,44386;1,00000;3
152,82541;33,62583;0,44536;1,00000;3
152,80041;33,62917;0,44686;1,00000;3
152,77535;33,63250;0,44822;1,00000;3
152,75041;33,63583;0,44950;1,00000;3
152,72547;33,63917;0,45085;1,00000;3
152,70059;33,64250;0,45235;1,00000;3
152,67565;33,64583;0,45385;1,00000;3
152,65065;33,64917;0,45542;1,00000;3
152,62571;33,65250;0,45699;1,00000;3
152,60076;33,65583;0,45856;1,00000;3
152,57582;33,65917;0,46013;1,00000;3
152,55077;33,66250;0,46170;1,00000;3
152,52565;33,66583;0,46320;1,00000;3
152,50071;33,66917;0,46484;1,00000;3
152,47565;33,67250;0,46663;1,00000;3
152,45065;33,67583;0,46849;1,00000;3
152,42553;33,67917;0,47027;1,00000;3
152,40047;33,68250;0,47206;1,00000;3
152,37541;33,68583;0,47385;1,00000;3
152,35035;33,68917;0,47563;1,00000;3
152,32535;33,69250;0,47742;1,00000;3
152,30024;33,69583;0,47935;1,00000;3
152,27512;33,69917;0,48113;1,00000;3
152,25012;33,70250;0,48292;1,00000;3
152,22512;33,70583;0,48478;1,00000;3
152,20023;33,70917;0,48649;1,00000;3
152,17518;33,71250;0,48828;1,00000;3
152,15012;33,71583;0,49021;1,00000;3
152,12518;33,71917;0,49207;1,00000;3
152,10018;33,72250;0,49392;1,00000;3
152,07512;33,72583;0,49578;1,00000;3
152,05018;33,72917;0,49771;1,00000;3
152,02524;33,73250;0,49950;1,00000;3
152,00035;33,73583;0,50136;1,00000;3
151,97535;33,73917;0,50321;1,00000;3
151,95047;33,74250;0,50514;1,00000;3
151,92565;33,74583;0,50700;1,00000;3
151,90059;33,74917;0,50893;1,00000;3
151,87576;33,75250;0,51079;1,00000;3
151,85088;33,75583;0,51272;1,00000;3
151,82594;33,75917;0,51479;1,00000;3
151,80100;33,76250;0,51680;1,00000;3
151,77600;33,76583;0,51916;1,00000;3
151,75106;33,76917;0,52159;1,00000;3
151,72606;33,77250;0,52381;1,00000;3
151,70106;33,77583;0,52595;1,00000;3
151,67612;33,77917;0,52803;1,00000;3
151,65118;33,78250;0,52989;1,00000;3
151,62623;33,78583;0,53189;1,00000;3
151,60129;33,78917;0,53396;1,00000;3
151,57629;33,79250;0,53604;1,00000;3
151,55135;33,79583;0,53811;1,00000;3
151,52623;33,79917;0,54018;1,00000;3
151,50112;33,80250;0,54233;1,00000;3
151,47612;33,80583;0,54455;1,00000;3
151,45106;33,80917;0,54669;1,00000;3
151,42606;33,81250;0,54891;1,00000;3
151,40100;33,81583;0,55134;1,00000;3
151,37600;33,81917;0,55378;1,00000;3
151,35088;33,82250;0,55621;1,00000;3
151,32582;33,82583;0,55871;1,00000;3
151,30071;33,82917;0,56122;1,00000;3
151,27565;33,83250;0,56372;1,00000;3
151,25053;33,83583;0,56616;1,00000;3
151,22547;33,83917;0,56852;1,00000;3
151,20041;33,84250;0,57095;1,00000;3
151,17529;33,84583;0,57331;1,00000;3
151,15018;33,84917;0,57568;1,00000;3
151,12512;33,85250;0,57796;1,00000;3
151,10012;33,85583;0,58025;1,00000;3
151,07500;33,85917;0,58262;1,00000;3
151,05000;33,86250;0,58498;1,00000;3
151,02494;33,86583;0,58734;1,00000;3
150,99982;33,86917;0,58977;1,00000;3
150,97476;33,87250;0,59221;1,00000;3
150,94976;33,87583;0,59464;1,00000;3
150,92477;33,87917;0,59722;1,00000;3
150,89971;33,88250;0,59979;1,00000;3
150,87482;33,88583;0,60237;1,00000;3
150,84982;33,88917;0,60488;1,00000;3
150,82488;33,89250;0,60738;1,00000;3
150,79988;33,89583;0,60989;1,00000;3
150,77488;33,89917;0,61246;1,00000;3
150,74988;33,90250;0,61504;1,00000;3
150,72494;33,90583;0,61776;1,00000;3
150,69988;33,90917;0,62041;1,00000;3
150,67488;33,91250;0,62306;1,00000;3
150,64994;33,91583;0,62564;1,00000;3
150,62488;33,91917;0,62821;1,00000;3
150,59988;33,92250;0,63093;1,00000;3
150,57482;33,92583;0,63387;1,00000;3
150,54971;33,92917;0,63681;1,00000;3
150,52459;33,93250;0,63953;1,00000;3
150,49953;33,93583;0,64218;1,00000;3
150,47453;33,93917;0,64497;1,00000;3
150,44935;33,94250;0,64769;1,00000;3
150,42424;33,94583;0,65048;1,00000;3
150,39912;33,94917;0,65328;1,00000;3
150,37406;33,95250;0,65600;1,00000;3
150,34894;33,95583;0,65872;1,00000;3
150,32382;33,95917;0,66122;1,00000;3
150,29865;33,96250;0,66387;1,00000;3
150,27359;33,96583;0,66667;1,00000;3
150,24847;33,96917;0,66946;1,00000;3
150,22347;33,97250;0,67218;1,00000;3
150,19847;33,97583;0,67497;1,00000;3
150,17341;33,97917;0,67762;1,00000;3
150,14835;33,98250;0,68034;1,00000;3
150,12341;33,98583;0,68306;1,00000;3
150,09841;33,98917;0,68593;1,00000;3
150,07341;33,99250;0,68872;1,00000;3
150,04835;33,99583;0,69151;1,00000;3
150,02341;33,99917;0,69431;1,00000;3
149,99853;34,00250;0,69717;1,00000;3
149,97353;34,00583;0,69989;1,00000;3
149,94853;34,00917;0,70268;1,00000;3
149,92359;34,01250;0,70555;1,00000;3
149,89859;34,01583;0,70856;1,00000;3
149,87370;34,01917;0,71178;1,00000;3
149,84876;34,02250;0,71465;1,00000;3
149,82388;34,02583;0,71737;1,00000;3
149,79888;34,02917;0,72016;1,00000;3
149,77388;34,03250;0,72303;1,00000;3
149,74888;34,03583;0,72582;1,00000;3
149,72394;34,03917;0,72854;1,00000;3
149,69894;34,04250;0,73133;1,00000;3
149,67394;34,04583;0,73413;1,00000;3
149,64900;34,04917;0,73692;1,00000;3
149,62406;34,05250;0,73971;1,00000;3
149,59912;34,05583;0,74258;1,00000;3
149,57400;34,05917;0,74544;1,00000;3
149,54900;34,06250;0,74852;1,00000;3
149,52394;34,06583;0,75146;1,00000;3
149,49894;34,06917;0,75432;1,00000;3
149,47394;34,07250;0,75719;1,00000;3
149,44894;34,07583;0,75991;1,00000;3
149,42394;34,07917;0,76241;1,00000;3
149,39888;34,08250;0,76528;1,00000;3
149,37388;34,08583;0,76814;1,00000;3
149,34882;34,08917;0,77101;1,00000;3
149,32382;34,09250;0,77394;1,00000;3
149,29882;34,09583;0,77674;1,00000;3
149,27382;34,09917;0,77939;1,00000;3
149,24882;34,10250;0,78196;1,00000;3
149,22376;34,10583;0,78468;1,00000;3
149,19882;34,10917;0,78741;1,00000;3
149,17376;34,11250;0,79013;1,00000;3
149,14882;34,11583;0,79285;1,00000;3
149,12388;34,11917;0,79564;1,00000;3
149,09900;34,12250;0,79836;1,00000;3
149,07400;34,12583;0,80101;1,00000;3
149,04900;34,12917;0,80359;1,00000;3
149,02406;34,13250;0,80624;1,00000;3
148,99912;34,13583;0,80889;1,00000;3
148,97417;34,13917;0,81161;1,00000;3
148,94929;34,14250;0,81426;1,00000;3
148,92435;34,14583;0,81690;1,00000;3
148,89935;34,14917;0,81941;1,00000;3
148,87435;34,15250;0,82199;1,00000;3
148,84941;34,15583;0,82456;1,00000;3
148,82447;34,15917;0,82721;1,00000;3
148,79965;34,16250;0,82979;1,00000;3
148,77465;34,16583;0,83244;1,00000;3
148,74971;34,16917;0,83502;1,00000;3
148,72476;34,17250;0,83766;1,00000;3
148,69988;34,17583;0,84017;1,00000;3
148,67488;34,17917;0,84268;1,00000;3
148,65000;34,18250;0,84504;1,00000;3
148,62512;34,18583;0,84740;1,00000;3
148,60018;34,18917;0,84976;1,00000;3
148,57524;34,19250;0,85212;1,00000;3
148,55024;34,19583;0,85448;1,00000;3
148,52518;34,19917;0,85684;1,00000;3
148,50030;34,20250;0,85899;1,00000;3
148,47535;34,20583;0,86099;1,00000;3
148,45047;34,20917;0,86321;1,00000;3
148,42547;34,21250;0,86543;1,00000;3
148,40047;34,21583;0,86786;1,00000;3
148,37535;34,21917;0,87022;1,00000;3
148,35041;34,22250;0,87244;1,00000;3
148,32553;34,22583;0,87480;1,00000;3
148,30053;34,22917;0,87716;1,00000;3
148,27541;34,23250;0,87931;1,00000;3
148,25035;34,23583;0,88109;1,00000;3
148,22530;34,23917;0,88317;1,00000;3
148,20035;34,24250;0,88510;1,00000;3
148,17535;34,24583;0,88710;1,00000;3
148,15041;34,24917;0,88910;1,00000;3
148,12535;34,25250;0,89110;1,00000;3
148,10029;34,25583;0,89318;1,00000;3
148,07524;34,25917;0,89525;1,00000;3
148,05024;34,26250;0,89704;1,00000;3
148,02518;34,26583;0,89861;1,00000;3
148,00018;34,26917;0,90018;1,00000;3
147,97518;34,27250;0,90189;1,00000;3
147,95018;34,27583;0,90368;1,00000;3
147,92506;34,27917;0,90532;1,00000;3
147,89994;34,28250;0,90689;1,00000;3
147,87494;34,28583;0,90853;1,00000;3
147,84994;34,28917;0,91018;1,00000;3
147,82494;34,29250;0,91175;1,00000;3
147,79988;34,29583;0,91332;1,00000;3
147,77488;34,29917;0,91481;1,00000;3
147,74982;34,30250;0,91639;1,00000;3
147,72476;34,30583;0,91803;1,00000;3
147,69982;34,30917;0,91960;1,00000;3
147,67488;34,31250;0,92110;1,00000;3
147,64988;34,31583;0,92245;1,00000;3
147,62488;34,31917;0,92381;1,00000;3
147,59988;34,32250;0,92509;1,00000;3
147,57488;34,32583;0,92630;1,00000;3
147,54988;34,32917;0,92765;1,00000;3
147,52488;34,33250;0,92894;1,00000;3
147,49994;34,33583;0,93015;1,00000;3
147,47500;34,33917;0,93136;1,00000;3
147,45006;34,34250;0,93221;1,00000;3
147,42512;34,34583;0,93292;1,00000;3
147,40018;34,34917;0,93377;1,00000;3
147,37530;34,35250;0,93476;1,00000;3
147,35018;34,35583;0,93576;1,00000;3
147,32518;34,35917;0,93668;1,00000;3
147,30018;34,36250;0,93753;1,00000;3
147,27512;34,36583;0,93846;1,00000;3
147,25006;34,36917;0,93938;1,00000;3
147,22500;34,37250;0,94030;1,00000;3
147,20000;34,37583;0,94130;1,00000;3
147,17500;34,37917;0,94222;1,00000;3
147,15000;34,38250;0,94286;1,00000;3
147,12500;34,38583;0,94321;1,00000;3
147,10000;34,38917;0,94370;1,00000;3
147,07500;34,39250;0,94419;1,00000;3
147,04994;34,39583;0,94475;1,00000;3
147,02488;34,39917;0,94532;1,00000;3
146,99994;34,40250;0,94595;1,00000;3
146,97488;34,40583;0,94652;1,00000;3
146,94982;34,40917;0,94686;1,00000;3
146,92482;34,41250;0,94671;1,00000;3
146,89977;34,41583;0,94670;1,00000;3
146,87459;34,41917;0,94669;1,00000;3
146,84971;34,42250;0,94689;1,00000;3
146,82477;34,42583;0,94717;1,00000;3
146,79982;34,42917;0,94730;1,00000;3
146,77482;34,43250;0,94757;1,00000;3
146,74982;34,43583;0,94763;1,00000;3
146,72482;34,43917;0,94762;1,00000;3
146,69982;34,44250;0,94768;1,00000;3
146,67488;34,44583;0,94767;1,00000;3
146,65000;34,44917;0,94766;1,00000;3
146,62500;34,45250;0,94765;1,00000;3
146,60000;34,45583;0,94771;1,00000;3
146,57494;34,45917;0,94770;1,00000;3
146,55000;34,46250;0,94776;1,00000;3
146,52494;34,46583;0,94767;1,00000;3
146,50000;34,46917;0,94738;1,00000;3
146,47506;34,47250;0,94665;1,00000;3
146,45012;34,47583;0,94620;1,00000;3
146,42494;34,47917;0,94605;1,00000;3
146,39994;34,48250;0,94575;1,00000;3
146,37494;34,48583;0,94523;1,00000;3
146,34994;34,48917;0,94450;1,00000;3
146,32500;34,49250;0,94377;1,00000;3
146,30000;34,49583;0,94297;1,00000;3
146,27500;34,49917;0,94224;1,00000;3
146,24994;34,50250;0,94172;1,00000;3
146,22482;34,50583;0,94099;1,00000;3
146,19988;34,50917;0,94033;1,00000;3
146,17488;34,51250;0,93960;1,00000;3
146,14988;34,51583;0,93902;1,00000;3
146,12482;34,51917;0,93843;1,00000;3
146,09988;34,52250;0,93784;1,00000;3
146,07488;34,52583;0,93726;1,00000;3
146,04982;34,52917;0,93653;1,00000;3
146,02488;34,53250;0,93536;1,00000;3
145,99994;34,53583;0,93413;1,00000;3
145,97488;34,53917;0,93297;1,00000;3
145,94982;34,54250;0,93188;1,00000;3
145,92482;34,54583;0,93093;1,00000;3
145,89976;34,54917;0,92998;1,00000;3
145,87470;34,55250;0,92918;1,00000;3
145,84965;34,55583;0,92809;1,00000;3
145,82453;34,55917;0,92707;1,00000;3
145,79947;34,56250;0,92591;1,00000;3
145,77435;34,56583;0,92410;1,00000;3
145,74935;34,56917;0,92258;1,00000;3
145,72429;34,57250;0,92113;1,00000;3
145,69929;34,57583;0,91990;1,00000;3
145,67418;34,57917;0,91859;1,00000;3
145,64918;34,58250;0,91721;1,00000;3
145,62424;34,58583;0,91598;1,00000;3
145,59924;34,58917;0,91482;1,00000;3
145,57435;34,59250;0,91358;1,00000;3
145,54929;34,59583;0,91221;1,00000;3
145,52435;34,59917;0,91076;1,00000;3
145,49935;34,60250;0,90931;1,00000;3
145,47435;34,60583;0,90786;1,00000;3
145,44935;34,60917;0,90619;1,00000;3
145,42435;34,61250;0,90431;1,00000;3
145,39941;34,61583;0,90264;1,00000;3
145,37441;34,61917;0,90105;1,00000;3
145,34947;34,62250;0,89953;1,00000;3
145,32453;34,62583;0,89786;1,00000;3
145,29959;34,62917;0,89627;1,00000;3
145,27453;34,63250;0,89468;1,00000;3
145,24965;34,63583;0,89315;1,00000;3
145,22459;34,63917;0,89163;1,00000;3
145,19959;34,64250;0,88997;1,00000;3
145,17453;34,64583;0,88830;1,00000;3
145,14941;34,64917;0,88642;1,00000;3
145,12453;34,65250;0,88454;1,00000;3
145,09953;34,65583;0,88266;1,00000;3
145,07459;34,65917;0,88078;1,00000;3
145,04947;34,66250;0,87897;1,00000;3
145,02447;34,66583;0,87709;1,00000;3
144,99947;34,66917;0,87521;1,00000;3
144,97459;34,67250;0,87318;1,00000;3
144,94965;34,67583;0,87108;1,00000;3
144,92459;34,67917;0,86906;1,00000;3
144,89959;34,68250;0,86703;1,00000;3
144,87453;34,68583;0,86501;1,00000;3
144,84959;34,68917;0,86298;1,00000;3
144,82459;34,69250;0,86074;1,00000;3
144,79959;34,69583;0,85850;1,00000;3
144,77459;34,69917;0,85648;1,00000;3
144,74965;34,70250;0,85453;1,00000;3
144,72471;34,70583;0,85264;1,00000;3
144,69965;34,70917;0,85076;1,00000;3
144,67459;34,71250;0,84867;1,00000;3
144,64947;34,71583;0,84664;1,00000;3
144,62453;34,71917;0,84462;1,00000;3
144,59959;34,72250;0,84266;1,00000;3
144,57465;34,72583;0,84049;1,00000;3
144,54959;34,72917;0,83840;1,00000;3
144,52465;34,73250;0,83637;1,00000;3
144,49971;34,73583;0,83420;1,00000;3
144,47459;34,73917;0,83211;1,00000;3
144,44965;34,74250;0,82994;1,00000;3
144,42465;34,74583;0,82770;1,00000;3
144,39965;34,74917;0,82539;1,00000;3
144,37465;34,75250;0,82307;1,00000;3
144,34965;34,75583;0,82090;1,00000;3
144,32459;34,75917;0,81866;1,00000;3
144,29959;34,76250;0,81657;1,00000;3
144,27465;34,76583;0,81447;1,00000;3
144,24976;34,76917;0,81237;1,00000;3
144,22482;34,77250;0,81013;1,00000;3
144,20000;34,77583;0,80796;1,00000;3
144,17500;34,77917;0,80572;1,00000;3
144,14994;34,78250;0,80334;1,00000;3
144,12500;34,78583;0,80102;1,00000;3
144,10000;34,78917;0,79878;1,00000;3
144,07494;34,79250;0,79647;1,00000;3
144,05000;34,79583;0,79423;1,00000;3
144,02500;34,79917;0,79199;1,00000;3
144,00000;34,80250;0,78997;1,00000;3
143,97500;34,80583;0,78773;1,00000;3
143,95000;34,80917;0,78556;1,00000;3
143,92494;34,81250;0,78339;1,00000;3
143,89994;34,81583;0,78129;1,00000;3
143,87494;34,81917;0,77912;1,00000;3
143,84994;34,82250;0,77681;1,00000;3
143,82488;34,82583;0,77442;1,00000;3
143,80000;34,82917;0,77211;1,00000;3
143,77488;34,83250;0,76987;1,00000;3
143,74988;34,83583;0,76770;1,00000;3
143,72494;34,83917;0,76561;1,00000;3
143,69982;34,84250;0,76351;1,00000;3
143,67482;34,84583;0,76134;1,00000;3
143,64994;34,84917;0,75910;1,00000;3
143,62500;34,85250;0,75686;1,00000;3
143,60006;34,85583;0,75469;1,00000;3
143,57518;34,85917;0,75252;1,00000;3
143,55018;34,86250;0,75035;1,00000;3
143,52524;34,86583;0,74811;1,00000;3
143,50035;34,86917;0,74587;1,00000;3
143,47541;34,87250;0,74363;1,00000;3
143,45041;34,87583;0,74146;1,00000;3
143,42541;34,87917;0,73929;1,00000;3
143,40041;34,88250;0,73712;1,00000;3
143,37523;34,88583;0,73488;1,00000;3
143,35018;34,88917;0,73257;1,00000;3
143,32518;34,89250;0,73033;1,00000;3
143,30018;34,89583;0,72816;1,00000;3
143,27524;34,89917;0,72599;1,00000;3
143,25012;34,90250;0,72404;1,00000;3
143,22512;34,90583;0,72187;1,00000;3
143,20006;34,90917;0,71970;1,00000;3
143,17500;34,91250;0,71760;1,00000;3
143,14982;34,91583;0,71544;1,00000;3
143,12465;34,91917;0,71334;1,00000;3
143,09959;34,92250;0,71146;1,00000;3
143,07447;34,92583;0,70929;1,00000;3
143,04941;34,92917;0,70690;1,00000;3
143,02435;34,93250;0,70459;1,00000;3
142,99924;34,93583;0,70235;1,00000;3
142,97412;34,93917;0,70026;1,00000;3
142,94912;34,94250;0,69823;1,00000;3
142,92400;34,94583;0,69620;1,00000;3
142,89894;34,94917;0,69404;1,00000;3
142,87382;34,95250;0,69194;1,00000;3
142,84876;34,95583;0,68977;1,00000;3
142,82371;34,95917;0,68767;1,00000;3
142,79859;34,96250;0,68558;1,00000;3
142,77353;34,96583;0,68355;1,00000;3
142,74847;34,96917;0,68153;1,00000;3
142,72359;34,97250;0,67972;1,00000;3
142,69871;34,97583;0,67769;1,00000;3
142,67371;34,97917;0,67560;1,00000;3
142,64871;34,98250;0,67357;1,00000;3
142,62371;34,98583;0,67155;1,00000;3
142,59871;34,98917;0,66966;1,00000;3
142,57371;34,99250;0,66771;1,00000;3
142,54882;34,99583;0,66569;1,00000;3
142,52377;34,99917;0,66366;1,00000;3
142,49888;35,00250;0,66171;1,00000;3
142,47394;35,00583;0,65961;1,00000;3
142,44906;35,00917;0,65759;1,00000;3
142,42400;35,01250;0,65563;1,00000;3
142,39912;35,01583;0,65368;1,00000;3
142,37412;35,01917;0,65173;1,00000;3
142,34917;35,02250;0,64970;1,00000;3
142,32417;35,02583;0,64768;1,00000;3
142,29906;35,02917;0,64565;1,00000;3
142,27406;35,03250;0,64370;1,00000;3
142,24906;35,03583;0,64203;1,00000;3
142,22400;35,03917;0,64022;1,00000;3
142,19900;35,04250;0,63842;1,00000;3
142,17406;35,04583;0,63675;1,00000;3
142,14906;35,04917;0,63494;1,00000;3
142,12394;35,05250;0,63320;1,00000;3
142,09900;35,05583;0,63147;1,00000;3
142,07400;35,05917;0,62980;1,00000;3
142,04894;35,06250;0,62806;1,00000;3
142,02388;35,06583;0,62625;1,00000;3
141,99888;35,06917;0,62423;1,00000;3
141,97382;35,07250;0,62213;1,00000;3
141,94882;35,07583;0,62025;1,00000;3
141,92376;35,07917;0,61837;1,00000;3
141,89877;35,08250;0,61635;1,00000;3
141,87376;35,08583;0,61446;1,00000;3
141,84871;35,08917;0,61265;1,00000;3
141,82365;35,09250;0,61077;1,00000;3
141,79871;35,09583;0,60918;1,00000;3
141,77359;35,09917;0,60751;1,00000;3
141,74847;35,10250;0,60578;1,00000;3
141,72347;35,10583;0,60418;1,00000;3
141,69853;35,10917;0,60259;1,00000;3
141,67341;35,11250;0,60092;1,00000;3
141,64835;35,11583;0,59919;1,00000;3
141,62324;35,11917;0,59745;1,00000;3
141,59824;35,12250;0,59535;1,00000;3
141,57324;35,12583;0,59340;1,00000;3
141,54812;35,12917;0,59152;1,00000;3
141,52300;35,13250;0,58964;1,00000;3
141,49788;35,13583;0,58797;1,00000;3
141,47282;35,13917;0,58631;1,00000;3
141,44782;35,14250;0,58457;1,00000;3
141,42276;35,14583;0,58290;1,00000;3
141,39771;35,14917;0,58131;1,00000;3
141,37265;35,15250;0,57979;1,00000;3
141,34765;35,15583;0,57820;1,00000;3
141,32265;35,15917;0,57646;1,00000;3
141,29765;35,16250;0,57494;1,00000;3
141,27265;35,16583;0,57334;1,00000;3
141,24771;35,16917;0,57182;1,00000;3
141,22271;35,17250;0,57037;1,00000;3
141,19777;35,17583;0,56892;1,00000;3
141,17271;35,17917;0,56726;1,00000;3
141,14765;35,18250;0,56559;1,00000;3
141,12265;35,18583;0,56400;1,00000;3
141,09771;35,18917;0,56240;1,00000;3
141,07282;35,19250;0,56081;1,00000;3
141,04783;35,19583;0,55900;1,00000;3
141,02277;35,19917;0,55719;1,00000;3
140,99788;35,20250;0,55574;1,00000;3
140,97294;35,20583;0,55436;1,00000;3
140,94800;35,20917;0,55313;1,00000;3
140,92312;35,21250;0,55154;1,00000;3
140,89812;35,21583;0,54994;1,00000;3
140,87312;35,21917;0,54828;1,00000;3
140,84812;35,22250;0,54676;1,00000;3
140,82318;35,22583;0,54516;1,00000;3
140,79818;35,22917;0,54350;1,00000;3
140,77318;35,23250;0,54183;1,00000;3
140,74823;35,23583;0,54031;1,00000;3
140,72329;35,23917;0,53879;1,00000;3
140,69841;35,24250;0,53734;1,00000;3
140,67347;35,24583;0,53596;1,00000;3
140,64853;35,24917;0,53444;1,00000;3
140,62359;35,25250;0,53292;1,00000;3
140,59870;35,25583;0,53147;1,00000;3
140,57365;35,25917;0,52995;1,00000;3
140,54870;35,26250;0,52850;1,00000;3
140,52370;35,26583;0,52698;1,00000;3
140,49870;35,26917;0,52545;1,00000;3
140,47370;35,27250;0,52400;1,00000;3
140,44870;35,27583;0,52256;1,00000;3
140,42359;35,27917;0,52118;1,00000;3
140,39847;35,28250;0,51973;1,00000;3
140,37347;35,28583;0,51828;1,00000;3
140,34847;35,28917;0,51690;1,00000;3
140,32335;35,29250;0,51567;1,00000;3
140,29835;35,29583;0,51436;1,00000;3
140,27324;35,29917;0,51305;1,00000;3
140,24818;35,30250;0,51175;1,00000;3
140,22300;35,30583;0,51037;1,00000;3
140,19794;35,30917;0,50892;1,00000;3
140,17288;35,31250;0,50740;1,00000;3
140,14783;35,31583;0,50602;1,00000;3
140,12277;35,31917;0,50457;1,00000;3
140,09771;35,32250;0,50327;1,00000;3
140,07265;35,32583;0,50189;1,00000;3
140,04759;35,32917;0,50044;1,00000;3
140,02253;35,33250;0,49935;1,00000;3
139,99747;35,33583;0,49819;1,00000;3
139,97253;35,33917;0,49688;1,00000;3
139,94753;35,34250;0,49543;1,00000;3
139,92241;35,34583;0,49405;1,00000;3
139,89741;35,34917;0,49267;1,00000;3
139,87241;35,35250;0,49130;1,00000;3
139,84741;35,35583;0,49006;1,00000;3
139,82235;35,35917;0,48868;1,00000;3
139,79735;35,36250;0,48738;1,00000;3
139,77224;35,36583;0,48607;1,00000;3
139,74724;35,36917;0,48484;1,00000;3
139,72229;35,37250;0,48360;1,00000;3
139,69729;35,37583;0,48244;1,00000;3
139,67224;35,37917;0,48135;1,00000;3
139,64724;35,38250;0,48019;1,00000;3
139,62229;35,38583;0,47896;1,00000;3
139,59729;35,38917;0,47772;1,00000;3
139,57241;35,39250;0,47620;1,00000;3
139,54741;35,39583;0,47475;1,00000;3
139,52241;35,39917;0,47330;1,00000;3
139,49753;35,40250;0,47192;1,00000;3
139,47259;35,40583;0,47055;1,00000;3
139,44765;35,40917;0,46931;1,00000;3
139,42265;35,41250;0,46808;1,00000;3
139,39777;35,41583;0,46684;1,00000;3
139,37282;35,41917;0,46568;1,00000;3
139,34794;35,42250;0,46445;1,00000;3
139,32288;35,42583;0,46321;1,00000;3
139,29782;35,42917;0,46198;1,00000;3
139,27282;35,43250;0,46089;1,00000;3
139,24788;35,43583;0,45966;1,00000;3
139,22288;35,43917;0,45842;1,00000;3
139,19788;35,44250;0,45712;1,00000;3
139,17294;35,44583;0,45588;1,00000;3
139,14794;35,44917;0,45472;1,00000;3
139,12294;35,45250;0,45363;1,00000;3
139,09794;35,45583;0,45247;1,00000;3
139,07294;35,45917;0,45145;1,00000;3
139,04788;35,46250;0,45043;1,00000;3
139,02282;35,46583;0,44934;1,00000;3
138,99782;35,46917;0,44811;1,00000;3
138,97271;35,47250;0,44695;1,00000;3
138,94771;35,47583;0,44571;1,00000;3
138,92271;35,47917;0,44448;1,00000;3
138,89782;35,48250;0,44332;1,00000;3
138,87282;35,48583;0,44208;1,00000;3
138,84782;35,48917;0,44078;1,00000;3
138,82282;35,49250;0,43954;1,00000;3
138,79782;35,49583;0,43838;1,00000;3
138,77277;35,49917;0,43722;1,00000;3
138,74777;35,50250;0,43613;1,00000;3
138,72271;35,50583;0,43511;1,00000;3
138,69765;35,50917;0,43395;1,00000;3
138,67265;35,51250;0,43278;1,00000;3
138,64765;35,51583;0,43177;1,00000;3
138,62271;35,51917;0,43075;1,00000;3
138,59771;35,52250;0,42959;1,00000;3
138,57271;35,52583;0,42835;1,00000;3
138,54777;35,52917;0,42676;1,00000;3
138,52277;35,53250;0,42538;1,00000;3
138,49777;35,53583;0,42422;1,00000;3
138,47271;35,53917;0,42299;1,00000;3
138,44771;35,54250;0,42168;1,00000;3
138,42265;35,54583;0,42052;1,00000;3
138,39759;35,54917;0,42022;1,00000;3
138,37247;35,55250;0,41956;1,00000;3
138,34753;35,55583;0,41854;1,00000;3
138,32253;35,55917;0,41745;1,00000;3
138,29753;35,56250;0,41629;1,00000;3
138,27259;35,56583;0,41506;1,00000;3
138,24759;35,56917;0,41389;1,00000;3
138,22259;35,57250;0,41273;1,00000;3
138,19771;35,57583;0,41157;1,00000;3
138,17271;35,57917;0,41041;1,00000;3
138,14777;35,58250;0,40932;1,00000;3
138,12277;35,58583;0,40823;1,00000;3
138,09776;35,58917;0,40706;1,00000;3
138,07276;35,59250;0,40605;1,00000;3
138,04777;35,59583;0,40510;1,00000;3
138,02288;35,59917;0,40408;1,00000;3
137,99794;35,60250;0,40306;1,00000;3
137,97300;35,60583;0,40205;1,00000;3
137,94818;35,60917;0,40110;1,00000;3
137,92318;35,61250;0,40008;1,00000;3
137,89818;35,61583;0,39892;1,00000;3
137,87329;35,61917;0,39783;1,00000;3
137,84835;35,62250;0,39659;1,00000;3
137,82335;35,62583;0,39543;1,00000;3
137,79835;35,62917;0,39441;1,00000;3
137,77324;35,63250;0,39340;1,00000;3
137,74824;35,63583;0,39238;1,00000;3
137,72324;35,63917;0,39136;1,00000;3
137,69818;35,64250;0,39041;1,00000;3
137,67318;35,64583;0,38947;1,00000;3
137,64818;35,64917;0,38845;1,00000;3
137,62318;35,65250;0,38743;1,00000;3
137,59812;35,65583;0,38648;1,00000;3
137,57312;35,65917;0,38539;1,00000;3
137,54806;35,66250;0,38430;1,00000;3
137,52294;35,66583;0,38336;1,00000;3
137,49794;35,66917;0,38234;1,00000;3
137,47300;35,67250;0,38146;1,00000;3
137,44794;35,67583;0,38059;1,00000;3
137,42288;35,67917;0,37979;1,00000;3
137,39788;35,68250;0,37884;1,00000;3
137,37288;35,68583;0,37782;1,00000;3
137,34794;35,68917;0,37666;1,00000;3
137,32306;35,69250;0,37543;1,00000;3
137,29812;35,69583;0,37441;1,00000;3
137,27318;35,69917;0,37346;1,00000;3
137,24824;35,70250;0,37252;1,00000;3
137,22330;35,70583;0,37157;1,00000;3
137,19835;35,70917;0,37113;1,00000;3
137,17335;35,71250;0,37068;1,00000;3
137,14841;35,71583;0,37003;1,00000;3
137,12347;35,71917;0,36901;1,00000;3
137,09853;35,72250;0,36799;1,00000;3
137,07353;35,72583;0,36697;1,00000;3
137,04847;35,72917;0,36588;1,00000;3
137,02347;35,73250;0,36465;1,00000;3
136,99853;35,73583;0,36356;1,00000;3
136,97359;35,73917;0,36254;1,00000;3
136,94865;35,74250;0,36159;1,00000;3
136,92371;35,74583;0,36064;1,00000;3
136,89859;35,74917;0,35970;1,00000;3
136,87353;35,75250;0,35875;1,00000;3
136,84853;35,75583;0,35781;1,00000;3
136,82347;35,75917;0,35693;1,00000;3
136,79847;35,76250;0,35606;1,00000;3
136,77341;35,76583;0,35518;1,00000;3
136,74841;35,76917;0,35424;1,00000;3
136,72335;35,77250;0,35336;1,00000;3
136,69835;35,77583;0,35234;1,00000;3
136,67335;35,77917;0,35140;1,00000;3
136,64835;35,78250;0,35052;1,00000;3
136,62329;35,78583;0,34965;1,00000;3
136,59829;35,78917;0,34885;1,00000;3
136,57324;35,79250;0,34797;1,00000;3
136,54823;35,79583;0,34717;1,00000;3
136,52318;35,79917;0,34615;1,00000;3
136,49806;35,80250;0,34513;1,00000;3
136,47312;35,80583;0,34433;1,00000;3
136,44812;35,80917;0,34381;1,00000;3
136,42312;35,81250;0,34316;1,00000;3
136,39812;35,81583;0,34228;1,00000;3
136,37306;35,81917;0,34141;1,00000;3
136,34806;35,82250;0,34061;1,00000;3
136,32312;35,82583;0,33966;1,00000;3
136,29812;35,82917;0,33871;1,00000;3
136,27312;35,83250;0,33769;1,00000;3
136,24806;35,83583;0,33682;1,00000;3
136,22306;35,83917;0,33609;1,00000;3
136,19806;35,84250;0,33536;1,00000;3
136,17306;35,84583;0,33456;1,00000;3
136,14800;35,84917;0,33382;1,00000;3
136,12294;35,85250;0,33288;1,00000;3
136,09788;35,85583;0,33208;1,00000;3
136,07288;35,85917;0,33113;1,00000;3
136,04771;35,86250;0,33025;1,00000;3
136,02271;35,86583;0,32931;1,00000;3
135,99776;35,86917;0,32851;1,00000;3
135,97276;35,87250;0,32770;1,00000;3
135,94770;35,87583;0,32704;1,00000;3
135,92271;35,87917;0,32631;1,00000;3
135,89765;35,88250;0,32566;1,00000;3
135,87265;35,88583;0,32528;1,00000;3
135,84759;35,88917;0,32477;1,00000;3
135,82259;35,89250;0,32404;1,00000;3
135,79753;35,89583;0,32324;1,00000;3
135,77253;35,89917;0,32222;1,00000;3
135,74747;35,90250;0,32127;1,00000;3
135,72247;35,90583;0,32033;1,00000;3
135,69741;35,90917;0,31945;1,00000;3
135,67247;35,91250;0,31858;1,00000;3
135,64747;35,91583;0,31777;1,00000;3
135,62259;35,91917;0,31690;1,00000;3
135,59759;35,92250;0,31638;1,00000;3
135,57253;35,92583;0,31565;1,00000;3
135,54753;35,92917;0,31492;1,00000;3
135,52259;35,93250;0,31426;1,00000;3
135,49759;35,93583;0,31368;1,00000;3
135,47259;35,93917;0,31295;1,00000;3
135,44759;35,94250;0,31200;1,00000;3
135,42265;35,94583;0,31113;1,00000;3
135,39765;35,94917;0,31018;1,00000;3
135,37271;35,95250;0,30931;1,00000;3
135,34777;35,95583;0,30858;1,00000;3
135,32282;35,95917;0,30784;1,00000;3
135,29788;35,96250;0,30711;1,00000;3
135,27294;35,96583;0,30631;1,00000;3
135,24794;35,96917;0,30558;1,00000;3
135,22288;35,97250;0,30485;1,00000;3
135,19782;35,97583;0,30412;1,00000;3
135,17283;35,97917;0,30346;1,00000;3
135,14783;35,98250;0,30280;1,00000;3
135,12288;35,98583;0,30236;1,00000;3
135,09794;35,98917;0,30199;1,00000;3
135,07294;35,99250;0,30133;1,00000;3
135,04788;35,99583;0,30060;1,00000;3
135,02283;35,99917;0,29987;1,00000;3
134,99777;36,00250;0,29907;1,00000;3
134,97282;36,00583;0,29819;1,00000;3
134,94776;36,00917;0,29739;1,00000;3
134,92271;36,01250;0,29666;1,00000;3
134,89771;36,01583;0,29593;1,00000;3
134,87265;36,01917;0,29527;1,00000;3
134,84753;36,02250;0,29454;1,00000;3
134,82247;36,02583;0,29374;1,00000;3
134,79747;36,02917;0,29315;1,00000;3
134,77253;36,03250;0,29278;1,00000;3
134,74753;36,03583;0,29226;1,00000;3
134,72253;36,03917;0,29168;1,00000;3
134,69741;36,04250;0,29102;1,00000;3
134,67229;36,04583;0,29043;1,00000;3
134,64729;36,04917;0,28977;1,00000;3
134,62241;36,05250;0,28897;1,00000;3
134,59753;36,05583;0,28831;1,00000;3
134,57264;36,05917;0,28765;1,00000;3
134,54759;36,06250;0,28707;1,00000;3
134,52264;36,06583;0,28648;1,00000;3
134,49776;36,06917;0,28589;1,00000;3
134,47276;36,07250;0,28523;1,00000;3
134,44788;36,07583;0,28457;1,00000;3
134,42306;36,07917;0,28384;1,00000;3
134,39806;36,08250;0,28319;1,00000;3
134,37312;36,08583;0,28253;1,00000;3
134,34818;36,08917;0,28187;1,00000;3
134,32323;36,09250;0,28121;1,00000;3
134,29823;36,09583;0,28062;1,00000;3
134,27329;36,09917;0,28003;1,00000;3
134,24835;36,10250;0,27945;1,00000;3
134,22335;36,10583;0,27872;1,00000;3
134,19823;36,10917;0,27813;1,00000;3
134,17323;36,11250;0,27754;1,00000;3
134,14818;36,11583;0,27696;1,00000;3
134,12329;36,11917;0,27637;1,00000;3
134,09829;36,12250;0,27578;1,00000;3
134,07329;36,12583;0,27520;1,00000;3
134,04829;36,12917;0,27468;1,00000;3
134,02329;36,13250;0,27417;1,00000;3
133,99829;36,13583;0,27358;1,00000;3
133,97329;36,13917;0,27292;1,00000;3
133,94835;36,14250;0,27241;1,00000;3
133,92335;36,14583;0,27196;1,00000;3
133,89841;36,14917;0,27138;1,00000;3
133,87353;36,15250;0,27122;1,00000;3
133,84853;36,15583;0,27085;1,00000;3
133,82353;36,15917;0,27019;1,00000;3
133,79859;36,16250;0,26925;1,00000;3
133,77370;36,16583;0,26866;1,00000;3
133,74865;36,16917;0,26807;1,00000;3
133,72371;36,17250;0,26763;1,00000;3
133,69859;36,17583;0,26704;1,00000;3
133,67365;36,17917;0,26646;1,00000;3
133,64865;36,18250;0,26594;1,00000;3
133,62365;36,18583;0,26543;1,00000;3
133,59865;36,18917;0,26470;1,00000;3
133,57365;36,19250;0,26411;1,00000;3
133,54865;36,19583;0,26359;1,00000;3
133,52365;36,19917;0,26308;1,00000;3
133,49859;36,20250;0,26249;1,00000;3
133,47353;36,20583;0,26205;1,00000;3
133,44847;36,20917;0,26153;1,00000;3
133,42353;36,21250;0,26095;1,00000;3
133,39853;36,21583;0,26036;1,00000;3
133,37359;36,21917;0,25999;1,00000;3
133,34859;36,22250;0,25969;1,00000;3
133,32371;36,22583;0,25925;1,00000;3
133,29865;36,22917;0,25888;1,00000;3
133,27371;36,23250;0,25843;1,00000;3
133,24865;36,23583;0,25792;1,00000;3
133,22359;36,23917;0,25740;1,00000;3
133,19859;36,24250;0,25689;1,00000;3
133,17353;36,24583;0,25630;1,00000;3
133,14847;36,24917;0,25579;1,00000;3
133,12353;36,25250;0,25534;1,00000;3
133,09853;36,25583;0,25526;1,00000;3
133,07359;36,25917;0,25510;1,00000;3
133,04859;36,26250;0,25495;1,00000;3
133,02359;36,26583;0,25436;1,00000;3
132,99865;36,26917;0,25363;1,00000;3
132,97377;36,27250;0,25304;1,00000;3
132,94871;36,27583;0,25260;1,00000;3
132,92377;36,27917;0,25230;1,00000;3
132,89871;36,28250;0,25193;1,00000;3
132,87376;36,28583;0,25127;1,00000;3
132,84882;36,28917;0,25069;1,00000;3
132,82394;36,29250;0,25024;1,00000;3
132,79900;36,29583;0,24994;1,00000;3
132,77406;36,29917;0,24936;1,00000;3
132,74912;36,30250;0,24899;1,00000;3
132,72418;36,30583;0,24854;1,00000;3
132,69929;36,30917;0,24803;1,00000;3
132,67429;36,31250;0,24751;1,00000;3
132,64929;36,31583;0,24707;1,00000;3
132,62429;36,31917;0,24663;1,00000;3
132,59924;36,32250;0,24640;1,00000;3
132,57412;36,32583;0,24632;1,00000;3
132,54906;36,32917;0,24609;1,00000;3
132,52400;36,33250;0,24586;1,00000;3
132,49888;36,33583;0,24564;1,00000;3
132,47388;36,33917;0,24519;1,00000;3
132,44888;36,34250;0,24446;1,00000;3
132,42388;36,34583;0,24395;1,00000;3
132,39882;36,34917;0,24357;1,00000;3
132,37382;36,35250;0,24306;1,00000;3
132,34876;36,35583;0,24255;1,00000;3
132,32371;36,35917;0,24203;1,00000;3
132,29865;36,36250;0,24152;1,00000;3
132,27353;36,36583;0,24107;1,00000;3
132,24847;36,36917;0,24085;1,00000;3
132,22347;36,37250;0,24033;1,00000;3
132,19853;36,37583;0,23953;1,00000;3
132,17359;36,37917;0,23901;1,00000;3
132,14865;36,38250;0,23864;1,00000;3
132,12359;36,38583;0,23849;1,00000;3
132,09859;36,38917;0,23855;1,00000;3
132,07365;36,39250;0,23839;1,00000;3
132,04859;36,39583;0,23766;1,00000;3
132,02353;36,39917;0,23693;1,00000;3
131,99847;36,40250;0,23649;1,00000;3
131,97347;36,40583;0,23633;1,00000;3
131,94847;36,40917;0,23603;1,00000;3
131,92347;36,41250;0,23566;1,00000;3
131,89847;36,41583;0,23572;1,00000;3
131,87347;36,41917;0,23564;1,00000;3
131,84853;36,42250;0,23555;1,00000;3
131,82359;36,42583;0,23482;1,00000;3
131,79859;36,42917;0,23445;1,00000;3
131,77353;36,43250;0,23408;1,00000;3
131,74853;36,43583;0,23378;1,00000;3
131,72353;36,43917;0,23327;1,00000;3
131,69859;36,44250;0,23261;1,00000;3
131,67365;36,44583;0,23238;1,00000;3
131,64859;36,44917;0,23216;1,00000;3
131,62359;36,45250;0,23222;1,00000;3
131,59859;36,45583;0,23213;1,00000;3
131,57359;36,45917;0,23176;1,00000;3
131,54853;36,46250;0,23146;1,00000;3
131,52347;36,46583;0,23102;1,00000;3
131,49853;36,46917;0,23072;1,00000;3
131,47365;36,47250;0,23042;1,00000;3
131,44870;36,47583;0,23019;1,00000;3
131,42370;36,47917;0,23025;1,00000;3
131,39870;36,48250;0,23017;1,00000;3
131,37370;36,48583;0,22965;1,00000;3
131,34870;36,48917;0,22907;1,00000;3
131,32365;36,49250;0,22855;1,00000;3
131,29859;36,49583;0,22811;1,00000;3
131,27353;36,49917;0,22760;1,00000;3
131,24853;36,50250;0,22744;1,00000;3
131,22353;36,50583;0,22736;1,00000;3
131,19853;36,50917;0,22720;1,00000;3
131,17359;36,51250;0,22705;1,00000;3
131,14859;36,51583;0,22689;1,00000;3
131,12359;36,51917;0,22666;1,00000;3
131,09865;36,52250;0,22600;1,00000;3
131,07371;36,52583;0,22578;1,00000;3
131,04865;36,52917;0,22548;1,00000;3
131,02371;36,53250;0,22525;1,00000;3
130,99876;36,53583;0,22510;1,00000;3
130,97376;36,53917;0,22494;1,00000;3
130,94876;36,54250;0,22464;1,00000;3
130,92376;36,54583;0,22434;1,00000;3
130,89888;36,54917;0,22404;1,00000;3
130,87400;36,55250;0,22360;1,00000;3
130,84906;36,55583;0,22316;1,00000;3
130,82406;36,55917;0,22279;1,00000;3
130,79912;36,56250;0,22256;1,00000;3
130,77418;36,56583;0,22233;1,00000;3
130,74918;36,56917;0,22218;1,00000;3
130,72424;36,57250;0,22195;1,00000;3
130,69929;36,57583;0,22172;1,00000;3
130,67423;36,57917;0,22157;1,00000;3
130,64918;36,58250;0,22141;1,00000;3
130,62412;36,58583;0,22118;1,00000;3
130,59900;36,58917;0,22096;1,00000;3
130,57388;36,59250;0,22080;1,00000;3
130,54876;36,59583;0,22065;1,00000;3
130,52371;36,59917;0,22035;1,00000;3
130,49865;36,60250;0,22005;1,00000;3
130,47359;36,60583;0,21982;1,00000;3
130,44841;36,60917;0,21959;1,00000;3
130,42335;36,61250;0,21951;1,00000;3
130,39824;36,61583;0,21928;1,00000;3
130,37324;36,61917;0,21898;1,00000;3
130,34818;36,62250;0,21868;1,00000;3
130,32306;36,62583;0,21838;1,00000;3
130,29788;36,62917;0,21816;1,00000;3
130,27271;36,63250;0,21800;1,00000;3
130,24771;36,63583;0,21777;1,00000;3
130,22271;36,63917;0,21747;1,00000;3
130,19771;36,64250;0,21725;1,00000;3
130,17265;36,64583;0,21702;1,00000;3
130,14765;36,64917;0,21672;1,00000;3
130,12271;36,65250;0,21642;1,00000;3
130,09771;36,65583;0,21612;1,00000;3
130,07265;36,65917;0,21597;1,00000;3
130,04759;36,66250;0,21574;1,00000;3
130,02265;36,66583;0,21558;1,00000;3
129,99770;36,66917;0,21564;1,00000;3
129,97276;36,67250;0,21556;1,00000;3
129,94776;36,67583;0,21512;1,00000;3
129,92276;36,67917;0,21489;1,00000;3
129,89782;36,68250;0,21474;1,00000;3
129,87300;36,68583;0,21458;1,00000;3
129,84812;36,68917;0,21435;1,00000;3
129,82312;36,69250;0,21420;1,00000;3
129,79800;36,69583;0,21397;1,00000;3
129,77300;36,69917;0,21389;1,00000;3
129,74806;36,70250;0,21380;1,00000;3
129,72306;36,70583;0,21372;1,00000;3
129,69806;36,70917;0,21371;1,00000;3
129,67300;36,71250;0,21355;1,00000;3
129,64800;36,71583;0,21289;1,00000;3
129,62300;36,71917;0,21252;1,00000;3
129,59800;36,72250;0,21208;1,00000;3
129,57288;36,72583;0,21185;1,00000;3
129,54788;36,72917;0,21163;1,00000;3
129,52282;36,73250;0,21147;1,00000;3
129,49782;36,73583;0,21146;1,00000;3
129,47282;36,73917;0,21152;1,00000;3
129,44788;36,74250;0,21151;1,00000;3
129,42288;36,74583;0,21150;1,00000;3
129,39788;36,74917;0,21141;1,00000;3
129,37294;36,75250;0,21133;1,00000;3
129,34800;36,75583;0,21125;1,00000;3
129,32294;36,75917;0,21095;1,00000;3
129,29794;36,76250;0,21079;1,00000;3
129,27288;36,76583;0,21064;1,00000;3
129,24794;36,76917;0,21055;1,00000;3
129,22300;36,77250;0,21040;1,00000;3
129,19800;36,77583;0,21024;1,00000;3
129,17300;36,77917;0,20994;1,00000;3
129,14794;36,78250;0,20964;1,00000;3
129,12288;36,78583;0,20927;1,00000;3
129,09782;36,78917;0,20926;1,00000;3
129,07282;36,79250;0,20911;1,00000;3
129,04777;36,79583;0,20902;1,00000;3
129,02259;36,79917;0,20901;1,00000;3
128,99753;36,80250;0,20886;1,00000;3
128,97241;36,80583;0,20841;1,00000;3

