#EXPORTTYPE:DATA SINGLE
#FILE:AP52DE55 1%TRG 5K.ngb-sd7
#FORMAT:NETZSCH5
#FTYPE:ANSI
#IDENTITY:AP52DE55 1%TRG 5K
#DECIMAL:COMMA
#SEPARATOR:SEMICOLON
#MTYPE:DSC
#INSTRUMENT:NETZSCH DSC 204F1 Phoenix
#PROJECT:Gutkowski praca in¿
#DATE/TIME:13.01.2016 10:21
#CORR. FILE:
#TEMPCAL:TCALZERO.TMX
#SENSITIVITY:SENSZERO.EXX
#LABORATORY:206
#OPERATOR:MIC
#REMARK:
#SAMPLE:AP52DE55 1%TRG 5K
#SAMPLE MASS /mg:11,72
#MATERIAL:PU
#REFERENCE:correction
#REFERENCE MASS /mg:0
#TYPE OF CRUCIBLE:Pan Al, closed
#SAMPLE CRUCIBLE MASS /mg:0
#REFERENCE CRUCIBLE MASS /mg:39,35
#M.RANGE /µV:5000
#TAU-R:---
#CORR. CODE:000
#EXO:+1
#RANGE:15°C....250°C/-5,0....15,0K/min
#SEGMENT:S3/3
#SEG. 1:15°C/15,0(K/min)/250°C
#SEG. 2:250°C/00:05/250°C
#SEG. 3:250°C/5,0(K/min)/30°C

##Temp./°C;Time/min;DSC/(uV/mg);Sensit./(uV/mW);Segment
169,11623;36,84750;0,21880;1,00000;3
169,09959;36,85083;0,21879;1,00000;3
169,08294;36,85417;0,21885;1,00000;3
169,06623;36,85750;0,21885;1,00000;3
169,04953;36,86083;0,21877;1,00000;3
169,03282;36,86417;0,21877;1,00000;3
169,01623;36,86750;0,21869;1,00000;3
168,99965;36,87083;0,21869;1,00000;3
168,98294;36,87417;0,21881;1,00000;3
168,96618;36,87750;0,21900;1,00000;3
168,94959;36,88083;0,21925;1,00000;3
168,93288;36,88417;0,21944;1,00000;3
168,91629;36,88750;0,21956;1,00000;3
168,89971;36,89083;0,21969;1,00000;3
168,88312;36,89417;0,21962;1,00000;3
168,86641;36,89750;0,21954;1,00000;3
168,84976;36,90083;0,21954;1,00000;3
168,83312;36,90417;0,21979;1,00000;3
168,81647;36,90750;0,21998;1,00000;3
168,79977;36,91083;0,22004;1,00000;3
168,78312;36,91417;0,22023;1,00000;3
168,76647;36,91750;0,22022;1,00000;3
168,74982;36,92083;0,22015;1,00000;3
168,73306;36,92417;0,22014;1,00000;3
168,71635;36,92750;0,22013;1,00000;3
168,69965;36,93083;0,22019;1,00000;3
168,68294;36,93417;0,22025;1,00000;3
168,66617;36,93750;0,22031;1,00000;3
168,64953;36,94083;0,22030;1,00000;3
168,63270;36,94417;0,22029;1,00000;3
168,61594;36,94750;0,22022;1,00000;3
168,59917;36,95083;0,22015;1,00000;3
168,58259;36,95417;0,22008;1,00000;3
168,56594;36,95750;0,22007;1,00000;3
168,54935;36,96083;0,22013;1,00000;3
168,53270;36,96417;0,22025;1,00000;3
168,51606;36,96750;0,22037;1,00000;3
168,49941;36,97083;0,22043;1,00000;3
168,48270;36,97417;0,22042;1,00000;3
168,46606;36,97750;0,22048;1,00000;3
168,44947;36,98083;0,22061;1,00000;3
168,43276;36,98417;0,22073;1,00000;3
168,41612;36,98750;0,22072;1,00000;3
168,39959;36,99083;0,22072;1,00000;3
168,38300;36,99417;0,22071;1,00000;3
168,36641;36,99750;0,22077;1,00000;3
168,34982;37,00083;0,22076;1,00000;3
168,33323;37,00417;0,22082;1,00000;3
168,31659;37,00750;0,22081;1,00000;3
168,29994;37,01083;0,22087;1,00000;3
168,28329;37,01417;0,22093;1,00000;3
168,26665;37,01750;0,22099;1,00000;3
168,25000;37,02083;0,22104;1,00000;3
168,23335;37,02417;0,22110;1,00000;3
168,21671;37,02750;0,22116;1,00000;3
168,20012;37,03083;0,22109;1,00000;3
168,18347;37,03417;0,22115;1,00000;3
168,16677;37,03750;0,22114;1,00000;3
168,15018;37,04083;0,22107;1,00000;3
168,13353;37,04417;0,22113;1,00000;3
168,11677;37,04750;0,22125;1,00000;3
168,10006;37,05083;0,22137;1,00000;3
168,08330;37,05417;0,22149;1,00000;3
168,06665;37,05750;0,22149;1,00000;3
168,04994;37,06083;0,22148;1,00000;3
168,03324;37,06417;0,22154;1,00000;3
168,01653;37,06750;0,22153;1,00000;3
167,99977;37,07083;0,22159;1,00000;3
167,98300;37,07417;0,22171;1,00000;3
167,96624;37,07750;0,22190;1,00000;3
167,94947;37,08083;0,22196;1,00000;3
167,93271;37,08417;0,22202;1,00000;3
167,91600;37,08750;0,22208;1,00000;3
167,89930;37,09083;0,22220;1,00000;3
167,88259;37,09417;0,22226;1,00000;3
167,86582;37,09750;0,22225;1,00000;3
167,84906;37,10083;0,22218;1,00000;3
167,83229;37,10417;0,22230;1,00000;3
167,81553;37,10750;0,22242;1,00000;3
167,79888;37,11083;0,22242;1,00000;3
167,78212;37,11417;0,22248;1,00000;3
167,76535;37,11750;0,22240;1,00000;3
167,74859;37,12083;0,22240;1,00000;3
167,73182;37,12417;0,22245;1,00000;3
167,71523;37,12750;0,22258;1,00000;3
167,69859;37,13083;0,22270;1,00000;3
167,68188;37,13417;0,22269;1,00000;3
167,66529;37,13750;0,22275;1,00000;3
167,64870;37,14083;0,22287;1,00000;3
167,63200;37,14417;0,22300;1,00000;3
167,61529;37,14750;0,22306;1,00000;3
167,59865;37,15083;0,22311;1,00000;3
167,58194;37,15417;0,22330;1,00000;3
167,56529;37,15750;0,22343;1,00000;3
167,54871;37,16083;0,22355;1,00000;3
167,53212;37,16417;0,22367;1,00000;3
167,51547;37,16750;0,22380;1,00000;3
167,49894;37,17083;0,22392;1,00000;3
167,48235;37,17417;0,22398;1,00000;3
167,46582;37,17750;0,22397;1,00000;3
167,44923;37,18083;0,22390;1,00000;3
167,43259;37,18417;0,22383;1,00000;3
167,41594;37,18750;0,22382;1,00000;3
167,39935;37,19083;0,22388;1,00000;3
167,38265;37,19417;0,22387;1,00000;3
167,36588;37,19750;0,22399;1,00000;3
167,34924;37,20083;0,22405;1,00000;3
167,33259;37,20417;0,22431;1,00000;3
167,31588;37,20750;0,22430;1,00000;3
167,29935;37,21083;0,22429;1,00000;3
167,28277;37,21417;0,22435;1,00000;3
167,26612;37,21750;0,22441;1,00000;3
167,24953;37,22083;0,22447;1,00000;3
167,23282;37,22417;0,22459;1,00000;3
167,21606;37,22750;0,22471;1,00000;3
167,19941;37,23083;0,22484;1,00000;3
167,18271;37,23417;0,22489;1,00000;3
167,16594;37,23750;0,22521;1,00000;3
167,14918;37,24083;0,22521;1,00000;3
167,13247;37,24417;0,22533;1,00000;3
167,11571;37,24750;0,22539;1,00000;3
167,09894;37,25083;0,22544;1,00000;3
167,08230;37,25417;0,22550;1,00000;3
167,06565;37,25750;0,22556;1,00000;3
167,04900;37,26083;0,22594;1,00000;3
167,03229;37,26417;0,22607;1,00000;3
167,01553;37,26750;0,22619;1,00000;3
166,99882;37,27083;0,22618;1,00000;3
166,98206;37,27417;0,22611;1,00000;3
166,96535;37,27750;0,22597;1,00000;3
166,94865;37,28083;0,22584;1,00000;3
166,93200;37,28417;0,22583;1,00000;3
166,91529;37,28750;0,22589;1,00000;3
166,89859;37,29083;0,22608;1,00000;3
166,88200;37,29417;0,22614;1,00000;3
166,86541;37,29750;0,22626;1,00000;3
166,84871;37,30083;0,22632;1,00000;3
166,83218;37,30417;0,22637;1,00000;3
166,81553;37,30750;0,22650;1,00000;3
166,79882;37,31083;0,22649;1,00000;3
166,78212;37,31417;0,22655;1,00000;3
166,76547;37,31750;0,22654;1,00000;3
166,74894;37,32083;0,22660;1,00000;3
166,73235;37,32417;0,22685;1,00000;3
166,71565;37,32750;0,22698;1,00000;3
166,69906;37,33083;0,22704;1,00000;3
166,68241;37,33417;0,22696;1,00000;3
166,66582;37,33750;0,22676;1,00000;3
166,64918;37,34083;0,22669;1,00000;3
166,63259;37,34417;0,22668;1,00000;3
166,61600;37,34750;0,22687;1,00000;3
166,59935;37,35083;0,22725;1,00000;3
166,58265;37,35417;0,22738;1,00000;3
166,56612;37,35750;0,22763;1,00000;3
166,54953;37,36083;0,22762;1,00000;3
166,53294;37,36417;0,22768;1,00000;3
166,51635;37,36750;0,22761;1,00000;3
166,49965;37,37083;0,22760;1,00000;3
166,48294;37,37417;0,22773;1,00000;3
166,46618;37,37750;0,22804;1,00000;3
166,44941;37,38083;0,22830;1,00000;3
166,43283;37,38417;0,22855;1,00000;3
166,41618;37,38750;0,22854;1,00000;3
166,39947;37,39083;0,22847;1,00000;3
166,38283;37,39417;0,22847;1,00000;3
166,36618;37,39750;0,22852;1,00000;3
166,34947;37,40083;0,22858;1,00000;3
166,33271;37,40417;0,22870;1,00000;3
166,31600;37,40750;0,22870;1,00000;3
166,29930;37,41083;0,22863;1,00000;3
166,28253;37,41417;0,22855;1,00000;3
166,26577;37,41750;0,22848;1,00000;3
166,24912;37,42083;0,22847;1,00000;3
166,23241;37,42417;0,22853;1,00000;3
166,21577;37,42750;0,22853;1,00000;3
166,19912;37,43083;0,22845;1,00000;3
166,18247;37,43417;0,22851;1,00000;3
166,16588;37,43750;0,22857;1,00000;3
166,14918;37,44083;0,22882;1,00000;3
166,13253;37,44417;0,22888;1,00000;3
166,11594;37,44750;0,22887;1,00000;3
166,09929;37,45083;0,22887;1,00000;3
166,08259;37,45417;0,22912;1,00000;3
166,06594;37,45750;0,22931;1,00000;3
166,04947;37,46083;0,22950;1,00000;3
166,03288;37,46417;0,22956;1,00000;3
166,01629;37,46750;0,22961;1,00000;3
165,99976;37,47083;0,22974;1,00000;3
165,98312;37,47417;0,22986;1,00000;3
165,96647;37,47750;0,22992;1,00000;3
165,94982;37,48083;0,22991;1,00000;3
165,93323;37,48417;0,23003;1,00000;3
165,91653;37,48750;0,23022;1,00000;3
165,89982;37,49083;0,23035;1,00000;3
165,88306;37,49417;0,23034;1,00000;3
165,86641;37,49750;0,23033;1,00000;3
165,84959;37,50083;0,23039;1,00000;3
165,83282;37,50417;0,23051;1,00000;3
165,81612;37,50750;0,23057;1,00000;3
165,79953;37,51083;0,23063;1,00000;3
165,78282;37,51417;0,23075;1,00000;3
165,76606;37,51750;0,23081;1,00000;3
165,74935;37,52083;0,23093;1,00000;3
165,73265;37,52417;0,23112;1,00000;3
165,71594;37,52750;0,23131;1,00000;3
165,69929;37,53083;0,23156;1,00000;3
165,68259;37,53417;0,23162;1,00000;3
165,66600;37,53750;0,23168;1,00000;3
165,64935;37,54083;0,23167;1,00000;3
165,63282;37,54417;0,23173;1,00000;3
165,61618;37,54750;0,23179;1,00000;3
165,59959;37,55083;0,23185;1,00000;3
165,58300;37,55417;0,23204;1,00000;3
165,56653;37,55750;0,23216;1,00000;3
165,54994;37,56083;0,23222;1,00000;3
165,53341;37,56417;0,23215;1,00000;3
165,51671;37,56750;0,23207;1,00000;3
165,50012;37,57083;0,23200;1,00000;3
165,48347;37,57417;0,23199;1,00000;3
165,46688;37,57750;0,23192;1,00000;3
165,45035;37,58083;0,23211;1,00000;3
165,43371;37,58417;0,23223;1,00000;3
165,41706;37,58750;0,23275;1,00000;3
165,40041;37,59083;0,23300;1,00000;3
165,38371;37,59417;0,23299;1,00000;3
165,36706;37,59750;0,23299;1,00000;3
165,35035;37,60083;0,23298;1,00000;3
165,33376;37,60417;0,23304;1,00000;3
165,31712;37,60750;0,23316;1,00000;3
165,30041;37,61083;0,23329;1,00000;3
165,28365;37,61417;0,23334;1,00000;3
165,26694;37,61750;0,23340;1,00000;3
165,25012;37,62083;0,23339;1,00000;3
165,23347;37,62417;0,23352;1,00000;3
165,21682;37,62750;0,23377;1,00000;3
165,20012;37,63083;0,23389;1,00000;3
165,18341;37,63417;0,23402;1,00000;3
165,16670;37,63750;0,23408;1,00000;3
165,14994;37,64083;0,23407;1,00000;3
165,13324;37,64417;0,23426;1,00000;3
165,11659;37,64750;0,23445;1,00000;3
165,09982;37,65083;0,23457;1,00000;3
165,08306;37,65417;0,23469;1,00000;3
165,06635;37,65750;0,23481;1,00000;3
165,04971;37,66083;0,23487;1,00000;3
165,03306;37,66417;0,23506;1,00000;3
165,01641;37,66750;0,23525;1,00000;3
164,99982;37,67083;0,23537;1,00000;3
164,98324;37,67417;0,23550;1,00000;3
164,96659;37,67750;0,23562;1,00000;3
164,94994;37,68083;0,23574;1,00000;3
164,93329;37,68417;0,23593;1,00000;3
164,91665;37,68750;0,23612;1,00000;3
164,90000;37,69083;0,23624;1,00000;3
164,88335;37,69417;0,23637;1,00000;3
164,86665;37,69750;0,23642;1,00000;3
164,85000;37,70083;0,23642;1,00000;3
164,83335;37,70417;0,23634;1,00000;3
164,81671;37,70750;0,23627;1,00000;3
164,80006;37,71083;0,23633;1,00000;3
164,78341;37,71417;0,23645;1,00000;3
164,76670;37,71750;0,23658;1,00000;3
164,75000;37,72083;0,23670;1,00000;3
164,73323;37,72417;0,23682;1,00000;3
164,71647;37,72750;0,23701;1,00000;3
164,69970;37,73083;0,23720;1,00000;3
164,68300;37,73417;0,23732;1,00000;3
164,66635;37,73750;0,23751;1,00000;3
164,64965;37,74083;0,23757;1,00000;3
164,63300;37,74417;0,23769;1,00000;3
164,61623;37,74750;0,23782;1,00000;3
164,59947;37,75083;0,23800;1,00000;3
164,58282;37,75417;0,23813;1,00000;3
164,56612;37,75750;0,23825;1,00000;3
164,54941;37,76083;0,23837;1,00000;3
164,53282;37,76417;0,23856;1,00000;3
164,51617;37,76750;0,23869;1,00000;3
164,49959;37,77083;0,23874;1,00000;3
164,48300;37,77417;0,23887;1,00000;3
164,46641;37,77750;0,23906;1,00000;3
164,44988;37,78083;0,23924;1,00000;3
164,43335;37,78417;0,23943;1,00000;3
164,41670;37,78750;0,23949;1,00000;3
164,40018;37,79083;0,23961;1,00000;3
164,38347;37,79417;0,23974;1,00000;3
164,36676;37,79750;0,23973;1,00000;3
164,35006;37,80083;0,23972;1,00000;3
164,33341;37,80417;0,23972;1,00000;3
164,31676;37,80750;0,23978;1,00000;3
164,30012;37,81083;0,23990;1,00000;3
164,28347;37,81417;0,24009;1,00000;3
164,26682;37,81750;0,24034;1,00000;3
164,25006;37,82083;0,24053;1,00000;3
164,23335;37,82417;0,24059;1,00000;3
164,21653;37,82750;0,24077;1,00000;3
164,19976;37,83083;0,24090;1,00000;3
164,18294;37,83417;0,24109;1,00000;3
164,16618;37,83750;0,24153;1,00000;3
164,14941;37,84083;0,24166;1,00000;3
164,13277;37,84417;0,24165;1,00000;3
164,11594;37,84750;0,24158;1,00000;3
164,09912;37,85083;0,24170;1,00000;3
164,08241;37,85417;0,24189;1,00000;3
164,06571;37,85750;0,24208;1,00000;3
164,04906;37,86083;0,24220;1,00000;3
164,03241;37,86417;0,24232;1,00000;3
164,01565;37,86750;0,24245;1,00000;3
163,99888;37,87083;0,24264;1,00000;3
163,98218;37,87417;0,24289;1,00000;3
163,96553;37,87750;0,24288;1,00000;3
163,94888;37,88083;0,24281;1,00000;3
163,93218;37,88417;0,24287;1,00000;3
163,91547;37,88750;0,24293;1,00000;3
163,89888;37,89083;0,24312;1,00000;3
163,88224;37,89417;0,24356;1,00000;3
163,86559;37,89750;0,24375;1,00000;3
163,84888;37,90083;0,24388;1,00000;3
163,83218;37,90417;0,24406;1,00000;3
163,81565;37,90750;0,24419;1,00000;3
163,79894;37,91083;0,24424;1,00000;3
163,78229;37,91417;0,24430;1,00000;3
163,76547;37,91750;0,24436;1,00000;3
163,74859;37,92083;0,24435;1,00000;3
163,73194;37,92417;0,24441;1,00000;3
163,71530;37,92750;0,24447;1,00000;3
163,69859;37,93083;0,24466;1,00000;3
163,68188;37,93417;0,24491;1,00000;3
163,66512;37,93750;0,24517;1,00000;3
163,64841;37,94083;0,24535;1,00000;3
163,63171;37,94417;0,24548;1,00000;3
163,61500;37,94750;0,24560;1,00000;3
163,59824;37,95083;0,24566;1,00000;3
163,58147;37,95417;0,24585;1,00000;3
163,56471;37,95750;0,24604;1,00000;3
163,54812;37,96083;0,24629;1,00000;3
163,53141;37,96417;0,24648;1,00000;3
163,51477;37,96750;0,24653;1,00000;3
163,49806;37,97083;0,24659;1,00000;3
163,48147;37,97417;0,24665;1,00000;3
163,46494;37,97750;0,24677;1,00000;3
163,44824;37,98083;0,24696;1,00000;3
163,43153;37,98417;0,24709;1,00000;3
163,41488;37,98750;0,24727;1,00000;3
163,39824;37,99083;0,24746;1,00000;3
163,38165;37,99417;0,24765;1,00000;3
163,36500;37,99750;0,24790;1,00000;3
163,34841;38,00083;0,24796;1,00000;3
163,33171;38,00417;0,24809;1,00000;3
163,31506;38,00750;0,24814;1,00000;3
163,29847;38,01083;0,24820;1,00000;3
163,28182;38,01417;0,24833;1,00000;3
163,26518;38,01750;0,24845;1,00000;3
163,24847;38,02083;0,24857;1,00000;3
163,23177;38,02417;0,24863;1,00000;3
163,21512;38,02750;0,24869;1,00000;3
163,19847;38,03083;0,24894;1,00000;3
163,18177;38,03417;0,24913;1,00000;3
163,16512;38,03750;0,24938;1,00000;3
163,14853;38,04083;0,24951;1,00000;3
163,13188;38,04417;0,24963;1,00000;3
163,11518;38,04750;0,24975;1,00000;3
163,09847;38,05083;0,24994;1,00000;3
163,08188;38,05417;0,25006;1,00000;3
163,06518;38,05750;0,25025;1,00000;3
163,04853;38,06083;0,25044;1,00000;3
163,03182;38,06417;0,25050;1,00000;3
163,01512;38,06750;0,25062;1,00000;3
162,99847;38,07083;0,25075;1,00000;3
162,98171;38,07417;0,25087;1,00000;3
162,96506;38,07750;0,25093;1,00000;3
162,94841;38,08083;0,25105;1,00000;3
162,93177;38,08417;0,25117;1,00000;3
162,91512;38,08750;0,25123;1,00000;3
162,89853;38,09083;0,25148;1,00000;3
162,88194;38,09417;0,25174;1,00000;3
162,86518;38,09750;0,25193;1,00000;3
162,84847;38,10083;0,25211;1,00000;3
162,83182;38,10417;0,25230;1,00000;3
162,81518;38,10750;0,25243;1,00000;3
162,79853;38,11083;0,25255;1,00000;3
162,78188;38,11417;0,25274;1,00000;3
162,76524;38,11750;0,25293;1,00000;3
162,74865;38,12083;0,25305;1,00000;3
162,73194;38,12417;0,25324;1,00000;3
162,71524;38,12750;0,25343;1,00000;3
162,69853;38,13083;0,25342;1,00000;3
162,68182;38,13417;0,25348;1,00000;3
162,66524;38,13750;0,25354;1,00000;3
162,64853;38,14083;0,25359;1,00000;3
162,63188;38,14417;0,25365;1,00000;3
162,61518;38,14750;0,25371;1,00000;3
162,59853;38,15083;0,25377;1,00000;3
162,58188;38,15417;0,25396;1,00000;3
162,56524;38,15750;0,25440;1,00000;3
162,54859;38,16083;0,25459;1,00000;3
162,53188;38,16417;0,25472;1,00000;3
162,51523;38,16750;0,25484;1,00000;3
162,49847;38,17083;0,25522;1,00000;3
162,48176;38,17417;0,25580;1,00000;3
162,46506;38,17750;0,25619;1,00000;3
162,44841;38,18083;0,25624;1,00000;3
162,43176;38,18417;0,25617;1,00000;3
162,41518;38,18750;0,25610;1,00000;3
162,39859;38,19083;0,25616;1,00000;3
162,38188;38,19417;0,25622;1,00000;3
162,36529;38,19750;0,25634;1,00000;3
162,34865;38,20083;0,25646;1,00000;3
162,33206;38,20417;0,25652;1,00000;3
162,31541;38,20750;0,25658;1,00000;3
162,29882;38,21083;0,25664;1,00000;3
162,28218;38,21417;0,25676;1,00000;3
162,26553;38,21750;0,25688;1,00000;3
162,24894;38,22083;0,25714;1,00000;3
162,23218;38,22417;0,25726;1,00000;3
162,21559;38,22750;0,25738;1,00000;3
162,19900;38,23083;0,25757;1,00000;3
162,18235;38,23417;0,25776;1,00000;3
162,16577;38,23750;0,25795;1,00000;3
162,14912;38,24083;0,25820;1,00000;3
162,13247;38,24417;0,25839;1,00000;3
162,11582;38,24750;0,25864;1,00000;3
162,09912;38,25083;0,25890;1,00000;3
162,08241;38,25417;0,25915;1,00000;3
162,06576;38,25750;0,25934;1,00000;3
162,04900;38,26083;0,25946;1,00000;3
162,03223;38,26417;0,25965;1,00000;3
162,01553;38,26750;0,25990;1,00000;3
161,99882;38,27083;0,26009;1,00000;3
161,98218;38,27417;0,26015;1,00000;3
161,96547;38,27750;0,26021;1,00000;3
161,94888;38,28083;0,26033;1,00000;3
161,93223;38,28417;0,26039;1,00000;3
161,91547;38,28750;0,26090;1,00000;3
161,89876;38,29083;0,26155;1,00000;3
161,88212;38,29417;0,26226;1,00000;3
161,86547;38,29750;0,26251;1,00000;3
161,84876;38,30083;0,26185;1,00000;3
161,83206;38,30417;0,26152;1,00000;3
161,81541;38,30750;0,26145;1,00000;3
161,79876;38,31083;0,26157;1,00000;3
161,78206;38,31417;0,26169;1,00000;3
161,76541;38,31750;0,26175;1,00000;3
161,74888;38,32083;0,26194;1,00000;3
161,73224;38,32417;0,26232;1,00000;3
161,71565;38,32750;0,26271;1,00000;3
161,69888;38,33083;0,26290;1,00000;3
161,68218;38,33417;0,26302;1,00000;3
161,66547;38,33750;0,26327;1,00000;3
161,64877;38,34083;0,26333;1,00000;3
161,63218;38,34417;0,26332;1,00000;3
161,61559;38,34750;0,26332;1,00000;3
161,59882;38,35083;0,26344;1,00000;3
161,58223;38,35417;0,26369;1,00000;3
161,56559;38,35750;0,26395;1,00000;3
161,54894;38,36083;0,26414;1,00000;3
161,53235;38,36417;0,26439;1,00000;3
161,51565;38,36750;0,26464;1,00000;3
161,49894;38,37083;0,26483;1,00000;3
161,48235;38,37417;0,26502;1,00000;3
161,46559;38,37750;0,26527;1,00000;3
161,44888;38,38083;0,26559;1,00000;3
161,43218;38,38417;0,26591;1,00000;3
161,41553;38,38750;0,26610;1,00000;3
161,39888;38,39083;0,26622;1,00000;3
161,38218;38,39417;0,26634;1,00000;3
161,36547;38,39750;0,26634;1,00000;3
161,34882;38,40083;0,26640;1,00000;3
161,33212;38,40417;0,26665;1,00000;3
161,31553;38,40750;0,26684;1,00000;3
161,29883;38,41083;0,26703;1,00000;3
161,28218;38,41417;0,26728;1,00000;3
161,26559;38,41750;0,26760;1,00000;3
161,24888;38,42083;0,26785;1,00000;3
161,23224;38,42417;0,26810;1,00000;3
161,21559;38,42750;0,26829;1,00000;3
161,19882;38,43083;0,26861;1,00000;3
161,18218;38,43417;0,26873;1,00000;3
161,16559;38,43750;0,26892;1,00000;3
161,14894;38,44083;0,26911;1,00000;3
161,13241;38,44417;0,26930;1,00000;3
161,11588;38,44750;0,26949;1,00000;3
161,09924;38,45083;0,26961;1,00000;3
161,08265;38,45417;0,26973;1,00000;3
161,06600;38,45750;0,26986;1,00000;3
161,04941;38,46083;0,26998;1,00000;3
161,03277;38,46417;0,27010;1,00000;3
161,01618;38,46750;0,27029;1,00000;3
160,99947;38,47083;0,27055;1,00000;3
160,98271;38,47417;0,27080;1,00000;3
160,96606;38,47750;0,27112;1,00000;3
160,94941;38,48083;0,27137;1,00000;3
160,93282;38,48417;0,27136;1,00000;3
160,91624;38,48750;0,27136;1,00000;3
160,89965;38,49083;0,27142;1,00000;3
160,88300;38,49417;0,27147;1,00000;3
160,86635;38,49750;0,27186;1,00000;3
160,84965;38,50083;0,27224;1,00000;3
160,83294;38,50417;0,27243;1,00000;3
160,81635;38,50750;0,27262;1,00000;3
160,79971;38,51083;0,27281;1,00000;3
160,78300;38,51417;0,27293;1,00000;3
160,76635;38,51750;0,27312;1,00000;3
160,74971;38,52083;0,27318;1,00000;3
160,73294;38,52417;0,27330;1,00000;3
160,71635;38,52750;0,27349;1,00000;3
160,69971;38,53083;0,27413;1,00000;3
160,68306;38,53417;0,27464;1,00000;3
160,66641;38,53750;0,27490;1,00000;3
160,64977;38,54083;0,27509;1,00000;3
160,63312;38,54417;0,27528;1,00000;3
160,61641;38,54750;0,27553;1,00000;3
160,59976;38,55083;0,27565;1,00000;3
160,58312;38,55417;0,27577;1,00000;3
160,56653;38,55750;0,27596;1,00000;3
160,54988;38,56083;0,27622;1,00000;3
160,53324;38,56417;0,27640;1,00000;3
160,51659;38,56750;0,27666;1,00000;3
160,50000;38,57083;0,27685;1,00000;3
160,48329;38,57417;0,27703;1,00000;3
160,46659;38,57750;0,27716;1,00000;3
160,44994;38,58083;0,27735;1,00000;3
160,43329;38,58417;0,27760;1,00000;3
160,41677;38,58750;0,27779;1,00000;3
160,40012;38,59083;0,27791;1,00000;3
160,38347;38,59417;0,27803;1,00000;3
160,36682;38,59750;0,27842;1,00000;3
160,35018;38,60083;0,27874;1,00000;3
160,33347;38,60417;0,27906;1,00000;3
160,31676;38,60750;0,27931;1,00000;3
160,30000;38,61083;0,27950;1,00000;3
160,28329;38,61417;0,27969;1,00000;3
160,26659;38,61750;0,28000;1,00000;3
160,24988;38,62083;0,28026;1,00000;3
160,23329;38,62417;0,28058;1,00000;3
160,21665;38,62750;0,28083;1,00000;3
160,19994;38,63083;0,28108;1,00000;3
160,18323;38,63417;0,28134;1,00000;3
160,16664;38,63750;0,28152;1,00000;3
160,15000;38,64083;0,28171;1,00000;3
160,13323;38,64417;0,28184;1,00000;3
160,11647;38,64750;0,28176;1,00000;3
160,09982;38,65083;0,28169;1,00000;3
160,08311;38,65417;0,28175;1,00000;3
160,06641;38,65750;0,28187;1,00000;3
160,04982;38,66083;0,28213;1,00000;3
160,03317;38,66417;0,28251;1,00000;3
160,01664;38,66750;0,28289;1,00000;3
160,00000;38,67083;0,28315;1,00000;3
159,98341;38,67417;0,28347;1,00000;3
159,96682;38,67750;0,28378;1,00000;3
159,95012;38,68083;0,28404;1,00000;3
159,93341;38,68417;0,28423;1,00000;3
159,91676;38,68750;0,28448;1,00000;3
159,90012;38,69083;0,28473;1,00000;3
159,88347;38,69417;0,28499;1,00000;3
159,86682;38,69750;0,28524;1,00000;3
159,85018;38,70083;0,28556;1,00000;3
159,83359;38,70417;0,28588;1,00000;3
159,81694;38,70750;0,28613;1,00000;3
159,80035;38,71083;0,28638;1,00000;3
159,78371;38,71417;0,28664;1,00000;3
159,76700;38,71750;0,28689;1,00000;3
159,75035;38,72083;0,28708;1,00000;3
159,73371;38,72417;0,28740;1,00000;3
159,71700;38,72750;0,28765;1,00000;3
159,70023;38,73083;0,28797;1,00000;3
159,68347;38,73417;0,28822;1,00000;3
159,66682;38,73750;0,28828;1,00000;3
159,65012;38,74083;0,28834;1,00000;3
159,63341;38,74417;0,28885;1,00000;3
159,61682;38,74750;0,28943;1,00000;3
159,60006;38,75083;0,28949;1,00000;3
159,58323;38,75417;0,28961;1,00000;3
159,56659;38,75750;0,28987;1,00000;3
159,54988;38,76083;0,28999;1,00000;3
159,53317;38,76417;0,29024;1,00000;3
159,51635;38,76750;0,29063;1,00000;3
159,49970;38,77083;0,29101;1,00000;3
159,48306;38,77417;0,29133;1,00000;3
159,46641;38,77750;0,29171;1,00000;3
159,44965;38,78083;0,29203;1,00000;3
159,43300;38,78417;0,29241;1,00000;3
159,41635;38,78750;0,29273;1,00000;3
159,39977;38,79083;0,29292;1,00000;3
159,38306;38,79417;0,29324;1,00000;3
159,36647;38,79750;0,29349;1,00000;3
159,34988;38,80083;0,29375;1,00000;3
159,33324;38,80417;0,29400;1,00000;3
159,31665;38,80750;0,29425;1,00000;3
159,30018;38,81083;0,29451;1,00000;3
159,28353;38,81417;0,29476;1,00000;3
159,26688;38,81750;0,29508;1,00000;3
159,25018;38,82083;0,29540;1,00000;3
159,23359;38,82417;0,29572;1,00000;3
159,21694;38,82750;0,29597;1,00000;3
159,20029;38,83083;0,29616;1,00000;3
159,18365;38,83417;0,29641;1,00000;3
159,16700;38,83750;0,29667;1,00000;3
159,15035;38,84083;0,29685;1,00000;3
159,13376;38,84417;0,29717;1,00000;3
159,11718;38,84750;0,29749;1,00000;3
159,10053;38,85083;0,29774;1,00000;3
159,08382;38,85417;0,29806;1,00000;3
159,06718;38,85750;0,29838;1,00000;3
159,05053;38,86083;0,29870;1,00000;3
159,03382;38,86417;0,29889;1,00000;3
159,01712;38,86750;0,29921;1,00000;3
159,00047;38,87083;0,29959;1,00000;3
158,98382;38,87417;0,29997;1,00000;3
158,96718;38,87750;0,30023;1,00000;3
158,95047;38,88083;0,30054;1,00000;3
158,93371;38,88417;0,30080;1,00000;3
158,91700;38,88750;0,30099;1,00000;3
158,90024;38,89083;0,30124;1,00000;3
158,88353;38,89417;0,30156;1,00000;3
158,86676;38,89750;0,30188;1,00000;3
158,85006;38,90083;0,30226;1,00000;3
158,83329;38,90417;0,30258;1,00000;3
158,81659;38,90750;0,30283;1,00000;3
158,79994;38,91083;0,30309;1,00000;3
158,78323;38,91417;0,30340;1,00000;3
158,76647;38,91750;0,30366;1,00000;3
158,74976;38,92083;0,30398;1,00000;3
158,73306;38,92417;0,30423;1,00000;3
158,71629;38,92750;0,30455;1,00000;3
158,69959;38,93083;0,30487;1,00000;3
158,68288;38,93417;0,30519;1,00000;3
158,66617;38,93750;0,30550;1,00000;3
158,64953;38,94083;0,30582;1,00000;3
158,63282;38,94417;0,30614;1,00000;3
158,61611;38,94750;0,30659;1,00000;3
158,59947;38,95083;0,30704;1,00000;3
158,58276;38,95417;0,30749;1,00000;3
158,56606;38,95750;0,30787;1,00000;3
158,54935;38,96083;0,30825;1,00000;3
158,53270;38,96417;0,30844;1,00000;3
158,51600;38,96750;0,30876;1,00000;3
158,49929;38,97083;0,30934;1,00000;3
158,48265;38,97417;0,30972;1,00000;3
158,46600;38,97750;0,31017;1,00000;3
158,44929;38,98083;0,31082;1,00000;3
158,43265;38,98417;0,31120;1,00000;3
158,41600;38,98750;0,31113;1,00000;3
158,39929;38,99083;0,31132;1,00000;3
158,38265;38,99417;0,31150;1,00000;3
158,36594;38,99750;0,31176;1,00000;3
158,34929;39,00083;0,31208;1,00000;3
158,33265;39,00417;0,31233;1,00000;3
158,31594;39,00750;0,31271;1,00000;3
158,29935;39,01083;0,31310;1,00000;3
158,28265;39,01417;0,31355;1,00000;3
158,26600;39,01750;0,31406;1,00000;3
158,24924;39,02083;0,31457;1,00000;3
158,23253;39,02417;0,31528;1,00000;3
158,21588;39,02750;0,31580;1,00000;3
158,19912;39,03083;0,31624;1,00000;3
158,18247;39,03417;0,31663;1,00000;3
158,16577;39,03750;0,31708;1,00000;3
158,14906;39,04083;0,31746;1,00000;3
158,13241;39,04417;0,31752;1,00000;3
158,11582;39,04750;0,31764;1,00000;3
158,09912;39,05083;0,31790;1,00000;3
158,08247;39,05417;0,31821;1,00000;3
158,06582;39,05750;0,31860;1,00000;3
158,04918;39,06083;0,31911;1,00000;3
158,03253;39,06417;0,31930;1,00000;3
158,01588;39,06750;0,31955;1,00000;3
157,99924;39,07083;0,31994;1,00000;3
157,98253;39,07417;0,32052;1,00000;3
157,96594;39,07750;0,32096;1,00000;3
157,94929;39,08083;0,32154;1,00000;3
157,93259;39,08417;0,32212;1,00000;3
157,91588;39,08750;0,32244;1,00000;3
157,89918;39,09083;0,32269;1,00000;3
157,88253;39,09417;0,32301;1,00000;3
157,86594;39,09750;0,32327;1,00000;3
157,84923;39,10083;0,32352;1,00000;3
157,83259;39,10417;0,32397;1,00000;3
157,81600;39,10750;0,32455;1,00000;3
157,79935;39,11083;0,32493;1,00000;3
157,78265;39,11417;0,32525;1,00000;3
157,76594;39,11750;0,32557;1,00000;3
157,74935;39,12083;0,32595;1,00000;3
157,73271;39,12417;0,32640;1,00000;3
157,71606;39,12750;0,32685;1,00000;3
157,69935;39,13083;0,32730;1,00000;3
157,68259;39,13417;0,32781;1,00000;3
157,66594;39,13750;0,32839;1,00000;3
157,64935;39,14083;0,32858;1,00000;3
157,63282;39,14417;0,32890;1,00000;3
157,61618;39,14750;0,32922;1,00000;3
157,59953;39,15083;0,32947;1,00000;3
157,58277;39,15417;0,32992;1,00000;3
157,56606;39,15750;0,33050;1,00000;3
157,54936;39,16083;0,33088;1,00000;3
157,53265;39,16417;0,33133;1,00000;3
157,51594;39,16750;0,33184;1,00000;3
157,49936;39,17083;0,33249;1,00000;3
157,48271;39,17417;0,33294;1,00000;3
157,46600;39,17750;0,33332;1,00000;3
157,44930;39,18083;0,33377;1,00000;3
157,43265;39,18417;0,33428;1,00000;3
157,41606;39,18750;0,33473;1,00000;3
157,39947;39,19083;0,33518;1,00000;3
157,38277;39,19417;0,33576;1,00000;3
157,36606;39,19750;0,33634;1,00000;3
157,34930;39,20083;0,33666;1,00000;3
157,33253;39,20417;0,33704;1,00000;3
157,31594;39,20750;0,33736;1,00000;3
157,29935;39,21083;0,33774;1,00000;3
157,28271;39,21417;0,33819;1,00000;3
157,26600;39,21750;0,33864;1,00000;3
157,24941;39,22083;0,33909;1,00000;3
157,23288;39,22417;0,33954;1,00000;3
157,21618;39,22750;0,34005;1,00000;3
157,19953;39,23083;0,34050;1,00000;3
157,18288;39,23417;0,34101;1,00000;3
157,16624;39,23750;0,34153;1,00000;3
157,14959;39,24083;0,34204;1,00000;3
157,13288;39,24417;0,34255;1,00000;3
157,11618;39,24750;0,34300;1,00000;3
157,09947;39,25083;0,34352;1,00000;3
157,08276;39,25417;0,34397;1,00000;3
157,06624;39,25750;0,34441;1,00000;3
157,04965;39,26083;0,34493;1,00000;3
157,03282;39,26417;0,34544;1,00000;3
157,01612;39,26750;0,34622;1,00000;3
156,99941;39,27083;0,34666;1,00000;3
156,98288;39,27417;0,34705;1,00000;3
156,96612;39,27750;0,34750;1,00000;3
156,94941;39,28083;0,34808;1,00000;3
156,93265;39,28417;0,34872;1,00000;3
156,91600;39,28750;0,34923;1,00000;3
156,89924;39,29083;0,34968;1,00000;3
156,88247;39,29417;0,35013;1,00000;3
156,86576;39,29750;0,35058;1,00000;3
156,84906;39,30083;0,35109;1,00000;3
156,83253;39,30417;0,35161;1,00000;3
156,81594;39,30750;0,35212;1,00000;3
156,79929;39,31083;0,35257;1,00000;3
156,78253;39,31417;0,35302;1,00000;3
156,76588;39,31750;0,35353;1,00000;3
156,74929;39,32083;0,35411;1,00000;3
156,73259;39,32417;0,35469;1,00000;3
156,71600;39,32750;0,35566;1,00000;3
156,69923;39,33083;0,35624;1,00000;3
156,68271;39,33417;0,35688;1,00000;3
156,66600;39,33750;0,35753;1,00000;3
156,64935;39,34083;0,35811;1,00000;3
156,63265;39,34417;0,35862;1,00000;3
156,61600;39,34750;0,35913;1,00000;3
156,59947;39,35083;0,35958;1,00000;3
156,58270;39,35417;0,36016;1,00000;3
156,56600;39,35750;0,36067;1,00000;3
156,54912;39,36083;0,36119;1,00000;3
156,53241;39,36417;0,36183;1,00000;3
156,51576;39,36750;0,36254;1,00000;3
156,49906;39,37083;0,36319;1,00000;3
156,48235;39,37417;0,36383;1,00000;3
156,46565;39,37750;0,36441;1,00000;3
156,44894;39,38083;0,36492;1,00000;3
156,43218;39,38417;0,36550;1,00000;3
156,41547;39,38750;0,36621;1,00000;3
156,39876;39,39083;0,36685;1,00000;3
156,38206;39,39417;0,36743;1,00000;3
156,36547;39,39750;0,36801;1,00000;3
156,34876;39,40083;0,36859;1,00000;3
156,33212;39,40417;0,36923;1,00000;3
156,31529;39,40750;0,36988;1,00000;3
156,29865;39,41083;0,37046;1,00000;3
156,28212;39,41417;0,37110;1,00000;3
156,26559;39,41750;0,37175;1,00000;3
156,24894;39,42083;0,37245;1,00000;3
156,23229;39,42417;0,37310;1,00000;3
156,21570;39,42750;0,37381;1,00000;3
156,19912;39,43083;0,37458;1,00000;3
156,18253;39,43417;0,37529;1,00000;3
156,16588;39,43750;0,37593;1,00000;3
156,14929;39,44083;0,37658;1,00000;3
156,13270;39,44417;0,37722;1,00000;3
156,11600;39,44750;0,37780;1,00000;3
156,09941;39,45083;0,37838;1,00000;3
156,08271;39,45417;0,37883;1,00000;3
156,06606;39,45750;0,37908;1,00000;3
156,04953;39,46083;0,37953;1,00000;3
156,03300;39,46417;0,38005;1,00000;3
156,01635;39,46750;0,38075;1,00000;3
155,99965;39,47083;0,38153;1,00000;3
155,98294;39,47417;0,38269;1,00000;3
155,96629;39,47750;0,38373;1,00000;3
155,94959;39,48083;0,38470;1,00000;3
155,93288;39,48417;0,38554;1,00000;3
155,91612;39,48750;0,38638;1,00000;3
155,89935;39,49083;0,38715;1,00000;3
155,88270;39,49417;0,38779;1,00000;3
155,86600;39,49750;0,38850;1,00000;3
155,84923;39,50083;0,38921;1,00000;3
155,83253;39,50417;0,38960;1,00000;3
155,81576;39,50750;0,39005;1,00000;3
155,79906;39,51083;0,39056;1,00000;3
155,78241;39,51417;0,39120;1,00000;3
155,76559;39,51750;0,39198;1,00000;3
155,74882;39,52083;0,39275;1,00000;3
155,73218;39,52417;0,39353;1,00000;3
155,71553;39,52750;0,39423;1,00000;3
155,69882;39,53083;0,39507;1,00000;3
155,68212;39,53417;0,39585;1,00000;3
155,66547;39,53750;0,39669;1,00000;3
155,64876;39,54083;0,39746;1,00000;3
155,63212;39,54417;0,39824;1,00000;3
155,61547;39,54750;0,39901;1,00000;3
155,59882;39,55083;0,39978;1,00000;3
155,58218;39,55417;0,40049;1,00000;3
155,56559;39,55750;0,40120;1,00000;3
155,54888;39,56083;0,40204;1,00000;3
155,53223;39,56417;0,40282;1,00000;3
155,51559;39,56750;0,40359;1,00000;3
155,49894;39,57083;0,40436;1,00000;3
155,48229;39,57417;0,40507;1,00000;3
155,46570;39,57750;0,40591;1,00000;3
155,44906;39,58083;0,40675;1,00000;3
155,43235;39,58417;0,40772;1,00000;3
155,41576;39,58750;0,40850;1,00000;3
155,39912;39,59083;0,40920;1,00000;3
155,38241;39,59417;0,41011;1,00000;3
155,36582;39,59750;0,41108;1,00000;3
155,34923;39,60083;0,41192;1,00000;3
155,33259;39,60417;0,41282;1,00000;3
155,31588;39,60750;0,41360;1,00000;3
155,29923;39,61083;0,41431;1,00000;3
155,28253;39,61417;0,41449;1,00000;3
155,26594;39,61750;0,41507;1,00000;3
155,24929;39,62083;0,41637;1,00000;3
155,23265;39,62417;0,41773;1,00000;3
155,21606;39,62750;0,41857;1,00000;3
155,19941;39,63083;0,41928;1,00000;3
155,18265;39,63417;0,42005;1,00000;3
155,16600;39,63750;0,42102;1,00000;3
155,14935;39,64083;0,42199;1,00000;3
155,13271;39,64417;0,42263;1,00000;3
155,11612;39,64750;0,42334;1,00000;3
155,09947;39,65083;0,42431;1,00000;3
155,08277;39,65417;0,42541;1,00000;3
155,06600;39,65750;0,42638;1,00000;3
155,04935;39,66083;0,42729;1,00000;3
155,03271;39,66417;0,42819;1,00000;3
155,01600;39,66750;0,42903;1,00000;3
154,99935;39,67083;0,42993;1,00000;3
154,98265;39,67417;0,43084;1,00000;3
154,96594;39,67750;0,43181;1,00000;3
154,94930;39,68083;0,43258;1,00000;3
154,93259;39,68417;0,43342;1,00000;3
154,91588;39,68750;0,43426;1,00000;3
154,89930;39,69083;0,43523;1,00000;3
154,88259;39,69417;0,43607;1,00000;3
154,86594;39,69750;0,43697;1,00000;3
154,84918;39,70083;0,43794;1,00000;3
154,83241;39,70417;0,43885;1,00000;3
154,81571;39,70750;0,43982;1,00000;3
154,79900;39,71083;0,44079;1,00000;3
154,78235;39,71417;0,44176;1,00000;3
154,76565;39,71750;0,44266;1,00000;3
154,74894;39,72083;0,44363;1,00000;3
154,73229;39,72417;0,44453;1,00000;3
154,71559;39,72750;0,44557;1,00000;3
154,69888;39,73083;0,44660;1,00000;3
154,68229;39,73417;0,44751;1,00000;3
154,66565;39,73750;0,44841;1,00000;3
154,64894;39,74083;0,44932;1,00000;3
154,63235;39,74417;0,45035;1,00000;3
154,61565;39,74750;0,45152;1,00000;3
154,59900;39,75083;0,45268;1,00000;3
154,58230;39,75417;0,45378;1,00000;3
154,56565;39,75750;0,45481;1,00000;3
154,54894;39,76083;0,45585;1,00000;3
154,53224;39,76417;0,45675;1,00000;3
154,51553;39,76750;0,45779;1,00000;3
154,49883;39,77083;0,45882;1,00000;3
154,48218;39,77417;0,45992;1,00000;3
154,46559;39,77750;0,46096;1,00000;3
154,44900;39,78083;0,46206;1,00000;3
154,43229;39,78417;0,46322;1,00000;3
154,41565;39,78750;0,46465;1,00000;3
154,39888;39,79083;0,46588;1,00000;3
154,38218;39,79417;0,46672;1,00000;3
154,36553;39,79750;0,46756;1,00000;3
154,34876;39,80083;0,46859;1,00000;3
154,33212;39,80417;0,46956;1,00000;3
154,31541;39,80750;0,47066;1,00000;3
154,29865;39,81083;0,47169;1,00000;3
154,28200;39,81417;0,47273;1,00000;3
154,26535;39,81750;0,47370;1,00000;3
154,24871;39,82083;0,47486;1,00000;3
154,23212;39,82417;0,47596;1,00000;3
154,21541;39,82750;0,47693;1,00000;3
154,19871;39,83083;0,47797;1,00000;3
154,18200;39,83417;0,47920;1,00000;3
154,16524;39,83750;0,48030;1,00000;3
154,14871;39,84083;0,48140;1,00000;3
154,13200;39,84417;0,48250;1,00000;3
154,11535;39,84750;0,48359;1,00000;3
154,09859;39,85083;0,48476;1,00000;3
154,08182;39,85417;0,48586;1,00000;3
154,06524;39,85750;0,48696;1,00000;3
154,04853;39,86083;0,48819;1,00000;3
154,03182;39,86417;0,48948;1,00000;3
154,01523;39,86750;0,49078;1,00000;3
153,99859;39,87083;0,49194;1,00000;3
153,98194;39,87417;0,49304;1,00000;3
153,96523;39,87750;0,49421;1,00000;3
153,94847;39,88083;0,49524;1,00000;3
153,93188;39,88417;0,49634;1,00000;3
153,91517;39,88750;0,49757;1,00000;3
153,89853;39,89083;0,49874;1,00000;3
153,88188;39,89417;0,49997;1,00000;3
153,86512;39,89750;0,50107;1,00000;3
153,84853;39,90083;0,50217;1,00000;3
153,83188;39,90417;0,50333;1,00000;3
153,81529;39,90750;0,50450;1,00000;3
153,79871;39,91083;0,50573;1,00000;3
153,78194;39,91417;0,50702;1,00000;3
153,76529;39,91750;0,50838;1,00000;3
153,74865;39,92083;0,50961;1,00000;3
153,73200;39,92417;0,51091;1,00000;3
153,71535;39,92750;0,51214;1,00000;3
153,69865;39,93083;0,51343;1,00000;3
153,68206;39,93417;0,51466;1,00000;3
153,66553;39,93750;0,51596;1,00000;3
153,64888;39,94083;0,51725;1,00000;3
153,63224;39,94417;0,51855;1,00000;3
153,61553;39,94750;0,51971;1,00000;3
153,59882;39,95083;0,52081;1,00000;3
153,58212;39,95417;0,52178;1,00000;3
153,56541;39,95750;0,52288;1,00000;3
153,54877;39,96083;0,52411;1,00000;3
153,53206;39,96417;0,52527;1,00000;3
153,51535;39,96750;0,52650;1,00000;3
153,49876;39,97083;0,52780;1,00000;3
153,48206;39,97417;0,52916;1,00000;3
153,46535;39,97750;0,53045;1,00000;3
153,44865;39,98083;0,53175;1,00000;3
153,43188;39,98417;0,53304;1,00000;3
153,41524;39,98750;0,53434;1,00000;3
153,39859;39,99083;0,53557;1,00000;3
153,38188;39,99417;0,53680;1,00000;3
153,36512;39,99750;0,53809;1,00000;3
153,34847;40,00083;0,53939;1,00000;3
153,33171;40,00417;0,54062;1,00000;3
153,31506;40,00750;0,54185;1,00000;3
153,29841;40,01083;0,54308;1,00000;3
153,28177;40,01417;0,54444;1,00000;3
153,26500;40,01750;0,54560;1,00000;3
153,24841;40,02083;0,54670;1,00000;3
153,23171;40,02417;0,54793;1,00000;3
153,21500;40,02750;0,54929;1,00000;3
153,19829;40,03083;0,55065;1,00000;3
153,18165;40,03417;0,55195;1,00000;3
153,16506;40,03750;0,55311;1,00000;3
153,14841;40,04083;0,55434;1,00000;3
153,13177;40,04417;0,55564;1,00000;3
153,11506;40,04750;0,55693;1,00000;3
153,09835;40,05083;0,55836;1,00000;3
153,08176;40,05417;0,55972;1,00000;3
153,06518;40,05750;0,56108;1,00000;3
153,04865;40,06083;0,56231;1,00000;3
153,03200;40,06417;0,56354;1,00000;3
153,01535;40,06750;0,56483;1,00000;3
152,99865;40,07083;0,56613;1,00000;3
152,98206;40,07417;0,56736;1,00000;3
152,96535;40,07750;0,56852;1,00000;3
152,94871;40,08083;0,56975;1,00000;3
152,93206;40,08417;0,57098;1,00000;3
152,91553;40,08750;0,57234;1,00000;3
152,89894;40,09083;0,57364;1,00000;3
152,88229;40,09417;0,57500;1,00000;3
152,86571;40,09750;0,57629;1,00000;3
152,84912;40,10083;0,57752;1,00000;3
152,83247;40,10417;0,57862;1,00000;3
152,81588;40,10750;0,57913;1,00000;3
152,79918;40,11083;0,58037;1,00000;3
152,78247;40,11417;0,58205;1,00000;3
152,76582;40,11750;0,58335;1,00000;3
152,74912;40,12083;0,58458;1,00000;3
152,73247;40,12417;0,58594;1,00000;3
152,71588;40,12750;0,58723;1,00000;3
152,69929;40,13083;0,58853;1,00000;3
152,68271;40,13417;0,58995;1,00000;3
152,66612;40,13750;0,59131;1,00000;3
152,64947;40,14083;0,59254;1,00000;3
152,63276;40,14417;0,59377;1,00000;3
152,61606;40,14750;0,59500;1,00000;3
152,59935;40,15083;0,59623;1,00000;3
152,58265;40,15417;0,59753;1,00000;3
152,56588;40,15750;0,59869;1,00000;3
152,54918;40,16083;0,59986;1,00000;3
152,53247;40,16417;0,60108;1,00000;3
152,51582;40,16750;0,60225;1,00000;3
152,49924;40,17083;0,60335;1,00000;3
152,48253;40,17417;0,60445;1,00000;3
152,46588;40,17750;0,60568;1,00000;3
152,44924;40,18083;0,60678;1,00000;3
152,43253;40,18417;0,60794;1,00000;3
152,41582;40,18750;0,60911;1,00000;3
152,39906;40,19083;0,61027;1,00000;3
152,38229;40,19417;0,61137;1,00000;3
152,36553;40,19750;0,61254;1,00000;3
152,34882;40,20083;0,61377;1,00000;3
152,33206;40,20417;0,61500;1,00000;3
152,31530;40,20750;0,61610;1,00000;3
152,29853;40,21083;0,61733;1,00000;3
152,28182;40,21417;0,61849;1,00000;3
152,26512;40,21750;0,61966;1,00000;3
152,24847;40,22083;0,62082;1,00000;3
152,23171;40,22417;0,62185;1,00000;3
152,21488;40,22750;0,62295;1,00000;3
152,19818;40,23083;0,62405;1,00000;3
152,18147;40,23417;0,62515;1,00000;3
152,16476;40,23750;0,62612;1,00000;3
152,14806;40,24083;0,62696;1,00000;3
152,13123;40,24417;0,62793;1,00000;3
152,11447;40,24750;0,62903;1,00000;3
152,09782;40,25083;0,63013;1,00000;3
152,08117;40,25417;0,63117;1,00000;3
152,06453;40,25750;0,63227;1,00000;3
152,04794;40,26083;0,63337;1,00000;3
152,03135;40,26417;0,63447;1,00000;3
152,01470;40,26750;0,63550;1,00000;3
151,99800;40,27083;0,63653;1,00000;3
151,98135;40,27417;0,63763;1,00000;3
151,96465;40,27750;0,63873;1,00000;3
151,94806;40,28083;0,63977;1,00000;3
151,93141;40,28417;0,64080;1,00000;3
151,91476;40,28750;0,64190;1,00000;3
151,89818;40,29083;0,64300;1,00000;3
151,88159;40,29417;0,64404;1,00000;3
151,86494;40,29750;0,64494;1,00000;3
151,84847;40,30083;0,64559;1,00000;3
151,83194;40,30417;0,64656;1,00000;3
151,81535;40,30750;0,64746;1,00000;3
151,79877;40,31083;0,64843;1,00000;3
151,78212;40,31417;0,64933;1,00000;3
151,76547;40,31750;0,65030;1,00000;3
151,74882;40,32083;0,65134;1,00000;3
151,73218;40,32417;0,65224;1,00000;3
151,71565;40,32750;0,65289;1,00000;3
151,69906;40,33083;0,65373;1,00000;3
151,68241;40,33417;0,65443;1,00000;3
151,66576;40,33750;0,65527;1,00000;3
151,64912;40,34083;0,65618;1,00000;3
151,63241;40,34417;0,65695;1,00000;3
151,61570;40,34750;0,65779;1,00000;3
151,59894;40,35083;0,65863;1,00000;3
151,58223;40,35417;0,65947;1,00000;3
151,56541;40,35750;0,66024;1,00000;3
151,54870;40,36083;0,66095;1,00000;3
151,53200;40,36417;0,66173;1,00000;3
151,51523;40,36750;0,66250;1,00000;3
151,49847;40,37083;0,66334;1,00000;3
151,48170;40,37417;0,66412;1,00000;3
151,46494;40,37750;0,66482;1,00000;3
151,44823;40,38083;0,66560;1,00000;3
151,43141;40,38417;0,66618;1,00000;3
151,41465;40,38750;0,66669;1,00000;3
151,39788;40,39083;0,66740;1,00000;3
151,38106;40,39417;0,66804;1,00000;3
151,36429;40,39750;0,66862;1,00000;3
151,34753;40,40083;0,66914;1,00000;3
151,33076;40,40417;0,66972;1,00000;3
151,31406;40,40750;0,67029;1,00000;3
151,29741;40,41083;0,67094;1,00000;3
151,28076;40,41417;0,67152;1,00000;3
151,26400;40,41750;0,67216;1,00000;3
151,24718;40,42083;0,67274;1,00000;3
151,23059;40,42417;0,67338;1,00000;3
151,21400;40,42750;0,67390;1,00000;3
151,19741;40,43083;0,67415;1,00000;3
151,18082;40,43417;0,67441;1,00000;3
151,16424;40,43750;0,67472;1,00000;3
151,14771;40,44083;0,67517;1,00000;3
151,13106;40,44417;0,67569;1,00000;3
151,11447;40,44750;0,67613;1,00000;3
151,09794;40,45083;0,67658;1,00000;3
151,08135;40,45417;0,67697;1,00000;3
151,06476;40,45750;0,67696;1,00000;3
151,04818;40,46083;0,67702;1,00000;3
151,03159;40,46417;0,67727;1,00000;3
151,01488;40,46750;0,67766;1,00000;3
150,99824;40,47083;0,67804;1,00000;3
150,98171;40,47417;0,67849;1,00000;3
150,96512;40,47750;0,67900;1,00000;3
150,94841;40,48083;0,67945;1,00000;3
150,93165;40,48417;0,67990;1,00000;3
150,91494;40,48750;0,68009;1,00000;3
150,89818;40,49083;0,68008;1,00000;3
150,88135;40,49417;0,68014;1,00000;3
150,86459;40,49750;0,68020;1,00000;3
150,84788;40,50083;0,68045;1,00000;3
150,83118;40,50417;0,68064;1,00000;3
150,81447;40,50750;0,68089;1,00000;3
150,79777;40,51083;0,68114;1,00000;3
150,78106;40,51417;0,68140;1,00000;3
150,76435;40,51750;0,68165;1,00000;3
150,74753;40,52083;0,68184;1,00000;3
150,73077;40,52417;0,68209;1,00000;3
150,71400;40,52750;0,68241;1,00000;3
150,69712;40,53083;0,68247;1,00000;3
150,68041;40,53417;0,68246;1,00000;3
150,66365;40,53750;0,68246;1,00000;3
150,64694;40,54083;0,68245;1,00000;3
150,63029;40,54417;0,68231;1,00000;3
150,61359;40,54750;0,68224;1,00000;3
150,59706;40,55083;0,68210;1,00000;3
150,58041;40,55417;0,68197;1,00000;3
150,56370;40,55750;0,68176;1,00000;3
150,54700;40,56083;0,68163;1,00000;3
150,53035;40,56417;0,68155;1,00000;3
150,51370;40,56750;0,68155;1,00000;3
150,49706;40,57083;0,68148;1,00000;3
150,48035;40,57417;0,68134;1,00000;3
150,46370;40,57750;0,68120;1,00000;3
150,44712;40,58083;0,68080;1,00000;3
150,43041;40,58417;0,68047;1,00000;3
150,41382;40,58750;0,68020;1,00000;3
150,39712;40,59083;0,68000;1,00000;3
150,38053;40,59417;0,67973;1,00000;3
150,36388;40,59750;0,67940;1,00000;3
150,34706;40,60083;0,67926;1,00000;3
150,33035;40,60417;0,67913;1,00000;3
150,31359;40,60750;0,67886;1,00000;3
150,29682;40,61083;0,67872;1,00000;3
150,28012;40,61417;0,67852;1,00000;3
150,26341;40,61750;0,67832;1,00000;3
150,24665;40,62083;0,67805;1,00000;3
150,23000;40,62417;0,67759;1,00000;3
150,21329;40,62750;0,67693;1,00000;3
150,19659;40,63083;0,67640;1,00000;3
150,17994;40,63417;0,67594;1,00000;3
150,16324;40,63750;0,67554;1,00000;3
150,14665;40,64083;0,67521;1,00000;3
150,13000;40,64417;0,67475;1,00000;3
150,11335;40,64750;0,67435;1,00000;3
150,09659;40,65083;0,67389;1,00000;3
150,07994;40,65417;0,67336;1,00000;3
150,06341;40,65750;0,67290;1,00000;3
150,04682;40,66083;0,67250;1,00000;3
150,03024;40,66417;0,67197;1,00000;3
150,01371;40,66750;0,67151;1,00000;3
149,99712;40,67083;0,67092;1,00000;3
149,98053;40,67417;0,67045;1,00000;3
149,96394;40,67750;0,66999;1,00000;3
149,94729;40,68083;0,66946;1,00000;3
149,93071;40,68417;0,66900;1,00000;3
149,91406;40,68750;0,66828;1,00000;3
149,89735;40,69083;0,66749;1,00000;3
149,88071;40,69417;0,66683;1,00000;3
149,86406;40,69750;0,66630;1,00000;3
149,84741;40,70083;0,66565;1,00000;3
149,83077;40,70417;0,66505;1,00000;3
149,81412;40,70750;0,66433;1,00000;3
149,79741;40,71083;0,66361;1,00000;3
149,78071;40,71417;0,66269;1,00000;3
149,76400;40,71750;0,66183;1,00000;3
149,74724;40,72083;0,66098;1,00000;3
149,73047;40,72417;0,66013;1,00000;3
149,71382;40,72750;0,65934;1,00000;3
149,69718;40,73083;0,65849;1,00000;3
149,68047;40,73417;0,65776;1,00000;3
149,66382;40,73750;0,65717;1,00000;3
149,64712;40,74083;0,65664;1,00000;3
149,63059;40,74417;0,65592;1,00000;3
149,61400;40,74750;0,65513;1,00000;3
149,59735;40,75083;0,65421;1,00000;3
149,58071;40,75417;0,65330;1,00000;3
149,56406;40,75750;0,65244;1,00000;3
149,54741;40,76083;0,65159;1,00000;3
149,53077;40,76417;0,65080;1,00000;3
149,51418;40,76750;0,64995;1,00000;3
149,49753;40,77083;0,64910;1,00000;3
149,48094;40,77417;0,64824;1,00000;3
149,46435;40,77750;0,64732;1,00000;3
149,44776;40,78083;0,64647;1,00000;3
149,43112;40,78417;0,64555;1,00000;3
149,41441;40,78750;0,64463;1,00000;3
149,39777;40,79083;0,64352;1,00000;3
149,38100;40,79417;0,64247;1,00000;3
149,36429;40,79750;0,64136;1,00000;3
149,34747;40,80083;0,64044;1,00000;3
149,33082;40,80417;0,63952;1,00000;3
149,31418;40,80750;0,63906;1,00000;3
149,29747;40,81083;0,63820;1,00000;3
149,28082;40,81417;0,63735;1,00000;3
149,26418;40,81750;0,63643;1,00000;3
149,24747;40,82083;0,63551;1,00000;3
149,23076;40,82417;0,63460;1,00000;3
149,21406;40,82750;0,63335;1,00000;3
149,19729;40,83083;0,63224;1,00000;3
149,18059;40,83417;0,63119;1,00000;3
149,16382;40,83750;0,63021;1,00000;3
149,14712;40,84083;0,62922;1,00000;3
149,13047;40,84417;0,62824;1,00000;3
149,11376;40,84750;0,62719;1,00000;3
149,09712;40,85083;0,62614;1,00000;3
149,08047;40,85417;0,62516;1,00000;3
149,06382;40,85750;0,62411;1,00000;3
149,04712;40,86083;0,62300;1,00000;3
149,03047;40,86417;0,62195;1,00000;3
149,01382;40,86750;0,62084;1,00000;3
148,99706;40,87083;0,61959;1,00000;3
148,98035;40,87417;0,61848;1,00000;3
148,96371;40,87750;0,61743;1,00000;3
148,94712;40,88083;0,61638;1,00000;3
148,93041;40,88417;0,61527;1,00000;3
148,91388;40,88750;0,61428;1,00000;3
148,89724;40,89083;0,61324;1,00000;3
148,88065;40,89417;0,61219;1,00000;3
148,86400;40,89750;0,61120;1,00000;3
148,84735;40,90083;0,61009;1,00000;3
148,83071;40,90417;0,60904;1,00000;3
148,81400;40,90750;0,60780;1,00000;3
148,79741;40,91083;0,60662;1,00000;3
148,78071;40,91417;0,60544;1,00000;3
148,76394;40,91750;0,60439;1,00000;3
148,74718;40,92083;0,60321;1,00000;3
148,73053;40,92417;0,60210;1,00000;3
148,71394;40,92750;0,60105;1,00000;3
148,69729;40,93083;0,60000;1,00000;3
148,68059;40,93417;0,59902;1,00000;3
148,66382;40,93750;0,59797;1,00000;3
148,64724;40,94083;0,59692;1,00000;3
148,63047;40,94417;0,59581;1,00000;3
148,61382;40,94750;0,59469;1,00000;3
148,59712;40,95083;0,59358;1,00000;3
148,58041;40,95417;0,59253;1,00000;3
148,56371;40,95750;0,59142;1,00000;3
148,54706;40,96083;0,59017;1,00000;3
148,53041;40,96417;0,58887;1,00000;3
148,51365;40,96750;0,58762;1,00000;3
148,49706;40,97083;0,58638;1,00000;3
148,48047;40,97417;0,58533;1,00000;3
148,46377;40,97750;0,58435;1,00000;3
148,44700;40,98083;0,58330;1,00000;3
148,43030;40,98417;0,58244;1,00000;3
148,41365;40,98750;0,58146;1,00000;3
148,39700;40,99083;0,58048;1,00000;3
148,38030;40,99417;0,57943;1,00000;3
148,36359;40,99750;0,57832;1,00000;3
148,34694;41,00083;0,57714;1,00000;3
148,33024;41,00417;0,57602;1,00000;3
148,31353;41,00750;0,57471;1,00000;3
148,29694;41,01083;0,57347;1,00000;3
148,28029;41,01417;0,57236;1,00000;3
148,26353;41,01750;0,57111;1,00000;3
148,24688;41,02083;0,56980;1,00000;3
148,23023;41,02417;0,56856;1,00000;3
148,21353;41,02750;0,56738;1,00000;3
148,19682;41,03083;0,56646;1,00000;3
148,18024;41,03417;0,56548;1,00000;3
148,16359;41,03750;0,56430;1,00000;3
148,14700;41,04083;0,56312;1,00000;3
148,13029;41,04417;0,56188;1,00000;3
148,11376;41,04750;0,56063;1,00000;3
148,09718;41,05083;0,55946;1,00000;3
148,08059;41,05417;0,55834;1,00000;3
148,06400;41,05750;0,55729;1,00000;3
148,04741;41,06083;0,55631;1,00000;3
148,03076;41,06417;0,55533;1,00000;3
148,01394;41,06750;0,55434;1,00000;3
147,99723;41,07083;0,55329;1,00000;3
147,98065;41,07417;0,55225;1,00000;3
147,96394;41,07750;0,55120;1,00000;3
147,94724;41,08083;0,55008;1,00000;3
147,93059;41,08417;0,54891;1,00000;3
147,91394;41,08750;0,54773;1,00000;3
147,89723;41,09083;0,54668;1,00000;3
147,88059;41,09417;0,54563;1,00000;3
147,86382;41,09750;0,54458;1,00000;3
147,84712;41,10083;0,54360;1,00000;3
147,83029;41,10417;0,54248;1,00000;3
147,81359;41,10750;0,54150;1,00000;3
147,79682;41,11083;0,54045;1,00000;3
147,78000;41,11417;0,53934;1,00000;3
147,76323;41,11750;0,53829;1,00000;3
147,74653;41,12083;0,53731;1,00000;3
147,72988;41,12417;0,53639;1,00000;3
147,71312;41,12750;0,53540;1,00000;3
147,69641;41,13083;0,53436;1,00000;3
147,67970;41,13417;0,53337;1,00000;3
147,66306;41,13750;0,53245;1,00000;3
147,64635;41,14083;0,53147;1,00000;3
147,62970;41,14417;0,53036;1,00000;3
147,61312;41,14750;0,52911;1,00000;3
147,59647;41,15083;0,52761;1,00000;3
147,57976;41,15417;0,52643;1,00000;3
147,56312;41,15750;0,52525;1,00000;3
147,54653;41,16083;0,52446;1,00000;3
147,52982;41,16417;0,52374;1,00000;3
147,51306;41,16750;0,52276;1,00000;3
147,49635;41,17083;0,52171;1,00000;3
147,47959;41,17417;0,52053;1,00000;3
147,46288;41,17750;0,51929;1,00000;3
147,44618;41,18083;0,51830;1,00000;3
147,42953;41,18417;0,51791;1,00000;3
147,41276;41,18750;0,51712;1,00000;3
147,39600;41,19083;0,51568;1,00000;3
147,37929;41,19417;0,51437;1,00000;3
147,36259;41,19750;0,51326;1,00000;3
147,34588;41,20083;0,51221;1,00000;3
147,32912;41,20417;0,51103;1,00000;3
147,31235;41,20750;0,50959;1,00000;3
147,29571;41,21083;0,50854;1,00000;3
147,27900;41,21417;0,50769;1,00000;3
147,26229;41,21750;0,50703;1,00000;3
147,24571;41,22083;0,50637;1,00000;3
147,22918;41,22417;0,50558;1,00000;3
147,21265;41,22750;0,50473;1,00000;3
147,19612;41,23083;0,50368;1,00000;3
147,17953;41,23417;0,50270;1,00000;3
147,16294;41,23750;0,50184;1,00000;3
147,14629;41,24083;0,50106;1,00000;3
147,12982;41,24417;0,50014;1,00000;3
147,11335;41,24750;0,49916;1,00000;3
147,09682;41,25083;0,49817;1,00000;3
147,08023;41,25417;0,49712;1,00000;3
147,06365;41,25750;0,49614;1,00000;3
147,04712;41,26083;0,49516;1,00000;3
147,03065;41,26417;0,49424;1,00000;3
147,01412;41,26750;0,49332;1,00000;3
146,99753;41,27083;0,49240;1,00000;3
146,98094;41,27417;0,49135;1,00000;3
146,96429;41,27750;0,49044;1,00000;3
146,94759;41,28083;0,48965;1,00000;3
146,93088;41,28417;0,48879;1,00000;3
146,91424;41,28750;0,48794;1,00000;3
146,89765;41,29083;0,48702;1,00000;3
146,88106;41,29417;0,48604;1,00000;3
146,86441;41,29750;0,48506;1,00000;3
146,84771;41,30083;0,48414;1,00000;3
146,83094;41,30417;0,48341;1,00000;3
146,81406;41,30750;0,48263;1,00000;3
146,79723;41,31083;0,48177;1,00000;3
146,78041;41,31417;0,48105;1,00000;3
146,76359;41,31750;0,48020;1,00000;3
146,74677;41,32083;0,47921;1,00000;3
146,72994;41,32417;0,47829;1,00000;3
146,71324;41,32750;0,47738;1,00000;3
146,69647;41,33083;0,47646;1,00000;3
146,67959;41,33417;0,47560;1,00000;3
146,66282;41,33750;0,47475;1,00000;3
146,64612;41,34083;0,47390;1,00000;3
146,62935;41,34417;0,47304;1,00000;3
146,61253;41,34750;0,47206;1,00000;3
146,59571;41,35083;0,47114;1,00000;3
146,57906;41,35417;0,47022;1,00000;3
146,56235;41,35750;0,46931;1,00000;3
146,54565;41,36083;0,46839;1,00000;3
146,52906;41,36417;0,46753;1,00000;3
146,51253;41,36750;0,46668;1,00000;3
146,49594;41,37083;0,46589;1,00000;3
146,47935;41,37417;0,46510;1,00000;3
146,46271;41,37750;0,46432;1,00000;3
146,44606;41,38083;0,46346;1,00000;3
146,42936;41,38417;0,46274;1,00000;3
146,41277;41,38750;0,46202;1,00000;3
146,39630;41,39083;0,46123;1,00000;3
146,37983;41,39417;0,46044;1,00000;3
146,36324;41,39750;0,45965;1,00000;3
146,34665;41,40083;0,45900;1,00000;3
146,33006;41,40417;0,45834;1,00000;3
146,31353;41,40750;0,45768;1,00000;3
146,29683;41,41083;0,45689;1,00000;3
146,28018;41,41417;0,45617;1,00000;3
146,26359;41,41750;0,45538;1,00000;3
146,24694;41,42083;0,45440;1,00000;3
146,23030;41,42417;0,45341;1,00000;3
146,21371;41,42750;0,45263;1,00000;3
146,19706;41,43083;0,45190;1,00000;3
146,18041;41,43417;0,45118;1,00000;3
146,16383;41,43750;0,45046;1,00000;3
146,14724;41,44083;0,44973;1,00000;3
146,13047;41,44417;0,44888;1,00000;3
146,11377;41,44750;0,44809;1,00000;3
146,09700;41,45083;0,44730;1,00000;3
146,08024;41,45417;0,44652;1,00000;3
146,06353;41,45750;0,44579;1,00000;3
146,04682;41,46083;0,44507;1,00000;3
146,03006;41,46417;0,44435;1,00000;3
146,01341;41,46750;0,44408;1,00000;3
145,99665;41,47083;0,44355;1,00000;3
145,98000;41,47417;0,44289;1,00000;3
145,96335;41,47750;0,44210;1,00000;3
145,94659;41,48083;0,44145;1,00000;3
145,92982;41,48417;0,44066;1,00000;3
145,91306;41,48750;0,43994;1,00000;3
145,89629;41,49083;0,43915;1,00000;3
145,87953;41,49417;0,43836;1,00000;3
145,86271;41,49750;0,43757;1,00000;3
145,84606;41,50083;0,43691;1,00000;3
145,82929;41,50417;0,43619;1,00000;3
145,81259;41,50750;0,43540;1,00000;3
145,79594;41,51083;0,43461;1,00000;3
145,77923;41,51417;0,43370;1,00000;3
145,76253;41,51750;0,43284;1,00000;3
145,74582;41,52083;0,43225;1,00000;3
145,72918;41,52417;0,43159;1,00000;3
145,71259;41,52750;0,43093;1,00000;3
145,69588;41,53083;0,43028;1,00000;3
145,67912;41,53417;0,42955;1,00000;3
145,66241;41,53750;0,42883;1,00000;3
145,64576;41,54083;0,42817;1,00000;3
145,62912;41,54417;0,42771;1,00000;3
145,61253;41,54750;0,42744;1,00000;3
145,59582;41,55083;0,42717;1,00000;3
145,57924;41,55417;0,42658;1,00000;3
145,56253;41,55750;0,42592;1,00000;3
145,54588;41,56083;0,42520;1,00000;3
145,52929;41,56417;0,42448;1,00000;3
145,51259;41,56750;0,42375;1,00000;3
145,49588;41,57083;0,42297;1,00000;3
145,47924;41,57417;0,42218;1,00000;3
145,46271;41,57750;0,42132;1,00000;3
145,44600;41,58083;0,42047;1,00000;3
145,42929;41,58417;0,41975;1,00000;3
145,41265;41,58750;0,41916;1,00000;3
145,39606;41,59083;0,41863;1,00000;3
145,37947;41,59417;0,41810;1,00000;3
145,36282;41,59750;0,41751;1,00000;3
145,34624;41,60083;0,41678;1,00000;3
145,32959;41,60417;0,41606;1,00000;3
145,31306;41,60750;0,41540;1,00000;3
145,29647;41,61083;0,41481;1,00000;3
145,27988;41,61417;0,41422;1,00000;3
145,26335;41,61750;0,41349;1,00000;3
145,24671;41,62083;0,41277;1,00000;3
145,23012;41,62417;0,41211;1,00000;3
145,21353;41,62750;0,41146;1,00000;3
145,19688;41,63083;0,41086;1,00000;3
145,18024;41,63417;0,41027;1,00000;3
145,16353;41,63750;0,40961;1,00000;3
145,14688;41,64083;0,40908;1,00000;3
145,13024;41,64417;0,40856;1,00000;3
145,11365;41,64750;0,40796;1,00000;3
145,09712;41,65083;0,40737;1,00000;3
145,08041;41,65417;0,40671;1,00000;3
145,06371;41,65750;0,40619;1,00000;3
145,04706;41,66083;0,40566;1,00000;3
145,03029;41,66417;0,40519;1,00000;3
145,01353;41,66750;0,40499;1,00000;3
144,99676;41,67083;0,40466;1,00000;3
144,98000;41,67417;0,40400;1,00000;3
144,96323;41,67750;0,40322;1,00000;3
144,94647;41,68083;0,40243;1,00000;3
144,92970;41,68417;0,40164;1,00000;3
144,91294;41,68750;0,40098;1,00000;3
144,89606;41,69083;0,40032;1,00000;3
144,87935;41,69417;0,39973;1,00000;3
144,86270;41,69750;0,39907;1,00000;3
144,84594;41,70083;0,39841;1,00000;3
144,82917;41,70417;0,39776;1,00000;3
144,81235;41,70750;0,39716;1,00000;3
144,79570;41,71083;0,39650;1,00000;3
144,77894;41,71417;0,39598;1,00000;3
144,76223;41,71750;0,39545;1,00000;3
144,74553;41,72083;0,39479;1,00000;3
144,72888;41,72417;0,39420;1,00000;3
144,71235;41,72750;0,39354;1,00000;3
144,69570;41,73083;0,39308;1,00000;3
144,67912;41,73417;0,39261;1,00000;3
144,66253;41,73750;0,39196;1,00000;3
144,64588;41,74083;0,39149;1,00000;3
144,62935;41,74417;0,39103;1,00000;3
144,61282;41,74750;0,39044;1,00000;3
144,59629;41,75083;0,38985;1,00000;3
144,57965;41,75417;0,38925;1,00000;3
144,56300;41,75750;0,38866;1,00000;3
144,54635;41,76083;0,38800;1,00000;3
144,52976;41,76417;0,38734;1,00000;3
144,51312;41,76750;0,38675;1,00000;3
144,49653;41,77083;0,38609;1,00000;3
144,47988;41,77417;0,38544;1,00000;3
144,46335;41,77750;0,38478;1,00000;3
144,44676;41,78083;0,38419;1,00000;3
144,43012;41,78417;0,38346;1,00000;3
144,41347;41,78750;0,38280;1,00000;3
144,39671;41,79083;0,38215;1,00000;3
144,38000;41,79417;0,38162;1,00000;3
144,36341;41,79750;0,38116;1,00000;3
144,34676;41,80083;0,38089;1,00000;3
144,33018;41,80417;0,38062;1,00000;3
144,31347;41,80750;0,38009;1,00000;3
144,29676;41,81083;0,37957;1,00000;3
144,28018;41,81417;0,37910;1,00000;3
144,26353;41,81750;0,37851;1,00000;3
144,24676;41,82083;0,37798;1,00000;3
144,23000;41,82417;0,37739;1,00000;3
144,21329;41,82750;0,37680;1,00000;3
144,19659;41,83083;0,37614;1,00000;3
144,17988;41,83417;0,37561;1,00000;3
144,16318;41,83750;0,37508;1,00000;3
144,14635;41,84083;0,37462;1,00000;3
144,12965;41,84417;0,37403;1,00000;3
144,11312;41,84750;0,37350;1,00000;3
144,09653;41,85083;0,37291;1,00000;3
144,07988;41,85417;0,37225;1,00000;3
144,06318;41,85750;0,37172;1,00000;3
144,04641;41,86083;0,37119;1,00000;3
144,02982;41,86417;0,37073;1,00000;3
144,01318;41,86750;0,37014;1,00000;3
143,99647;41,87083;0,36955;1,00000;3
143,97982;41,87417;0,36895;1,00000;3
143,96324;41,87750;0,36843;1,00000;3
143,94659;41,88083;0,36790;1,00000;3
143,93000;41,88417;0,36730;1,00000;3
143,91341;41,88750;0,36671;1,00000;3
143,89665;41,89083;0,36625;1,00000;3
143,88000;41,89417;0,36566;1,00000;3
143,86335;41,89750;0,36519;1,00000;3
143,84671;41,90083;0,36473;1,00000;3
143,83006;41,90417;0,36433;1,00000;3
143,81341;41,90750;0,36387;1,00000;3
143,79676;41,91083;0,36334;1,00000;3
143,78006;41,91417;0,36262;1,00000;3
143,76347;41,91750;0,36190;1,00000;3
143,74676;41,92083;0,36124;1,00000;3
143,73012;41,92417;0,36058;1,00000;3
143,71353;41,92750;0,35992;1,00000;3
143,69694;41,93083;0,35979;1,00000;3
143,68029;41,93417;0,35945;1,00000;3
143,66365;41,93750;0,35893;1,00000;3
143,64694;41,94083;0,35788;1,00000;3
143,63018;41,94417;0,35715;1,00000;3
143,61359;41,94750;0,35669;1,00000;3
143,59688;41,95083;0,35629;1,00000;3
143,58035;41,95417;0,35616;1,00000;3
143,56370;41,95750;0,35602;1,00000;3
143,54700;41,96083;0,35523;1,00000;3
143,53029;41,96417;0,35490;1,00000;3
143,51359;41,96750;0,35431;1,00000;3
143,49700;41,97083;0,35365;1,00000;3
143,48035;41,97417;0,35312;1,00000;3
143,46376;41,97750;0,35259;1,00000;3
143,44718;41,98083;0,35200;1,00000;3
143,43053;41,98417;0,35128;1,00000;3
143,41377;41,98750;0,35068;1,00000;3
143,39718;41,99083;0,35016;1,00000;3
143,38059;41,99417;0,34963;1,00000;3
143,36394;41,99750;0,34910;1,00000;3
143,34729;42,00083;0,34857;1,00000;3
143,33071;42,00417;0,34798;1,00000;3
143,31406;42,00750;0,34752;1,00000;3
143,29729;42,01083;0,34706;1,00000;3
143,28065;42,01417;0,34659;1,00000;3
143,26394;42,01750;0,34606;1,00000;3
143,24729;42,02083;0,34554;1,00000;3
143,23071;42,02417;0,34501;1,00000;3
143,21400;42,02750;0,34455;1,00000;3
143,19729;42,03083;0,34395;1,00000;3
143,18053;42,03417;0,34349;1,00000;3
143,16376;42,03750;0,34296;1,00000;3
143,14694;42,04083;0,34250;1,00000;3
143,13023;42,04417;0,34191;1,00000;3
143,11341;42,04750;0,34138;1,00000;3
143,09670;42,05083;0,34085;1,00000;3
143,08000;42,05417;0,34039;1,00000;3
143,06341;42,05750;0,34045;1,00000;3
143,04665;42,06083;0,34031;1,00000;3
143,02994;42,06417;0,33985;1,00000;3
143,01323;42,06750;0,33919;1,00000;3
142,99653;42,07083;0,33860;1,00000;3
142,97988;42,07417;0,33800;1,00000;3
142,96323;42,07750;0,33735;1,00000;3
142,94647;42,08083;0,33675;1,00000;3
142,92982;42,08417;0,33610;1,00000;3
142,91318;42,08750;0,33550;1,00000;3
142,89653;42,09083;0,33491;1,00000;3
142,87994;42,09417;0,33419;1,00000;3
142,86341;42,09750;0,33353;1,00000;3
142,84688;42,10083;0,33333;1,00000;3
142,83029;42,10417;0,33293;1,00000;3
142,81371;42,10750;0,33260;1,00000;3
142,79712;42,11083;0,33213;1,00000;3
142,78041;42,11417;0,33154;1,00000;3
142,76377;42,11750;0,33082;1,00000;3
142,74718;42,12083;0,32983;1,00000;3
142,73065;42,12417;0,32924;1,00000;3
142,71406;42,12750;0,32930;1,00000;3
142,69741;42,13083;0,32916;1,00000;3
142,68077;42,13417;0,32903;1,00000;3
142,66418;42,13750;0,32837;1,00000;3
142,64747;42,14083;0,32790;1,00000;3
142,63083;42,14417;0,32718;1,00000;3
142,61412;42,14750;0,32652;1,00000;3
142,59741;42,15083;0,32587;1,00000;3
142,58071;42,15417;0,32540;1,00000;3
142,56394;42,15750;0,32494;1,00000;3
142,54724;42,16083;0,32441;1,00000;3
142,53053;42,16417;0,32395;1,00000;3
142,51382;42,16750;0,32349;1,00000;3
142,49724;42,17083;0,32309;1,00000;3
142,48059;42,17417;0,32250;1,00000;3
142,46388;42,17750;0,32203;1,00000;3
142,44706;42,18083;0,32164;1,00000;3
142,43030;42,18417;0,32124;1,00000;3
142,41359;42,18750;0,32084;1,00000;3
142,39688;42,19083;0,32044;1,00000;3
142,38018;42,19417;0,31985;1,00000;3
142,36359;42,19750;0,31939;1,00000;3
142,34694;42,20083;0,31880;1,00000;3
142,33030;42,20417;0,31827;1,00000;3
142,31365;42,20750;0,31780;1,00000;3
142,29700;42,21083;0,31734;1,00000;3
142,28035;42,21417;0,31682;1,00000;3
142,26377;42,21750;0,31635;1,00000;3
142,24718;42,22083;0,31582;1,00000;3
142,23059;42,22417;0,31543;1,00000;3
142,21383;42,22750;0,31497;1,00000;3
142,19712;42,23083;0,31444;1,00000;3
142,18047;42,23417;0,31397;1,00000;3
142,16394;42,23750;0,31345;1,00000;3
142,14741;42,24083;0,31305;1,00000;3
142,13083;42,24417;0,31259;1,00000;3
142,11418;42,24750;0,31219;1,00000;3
142,09753;42,25083;0,31179;1,00000;3
142,08088;42,25417;0,31139;1,00000;3
142,06412;42,25750;0,31100;1,00000;3
142,04747;42,26083;0,31047;1,00000;3
142,03077;42,26417;0,30988;1,00000;3
142,01412;42,26750;0,30915;1,00000;3
141,99753;42,27083;0,30863;1,00000;3
141,98094;42,27417;0,30829;1,00000;3
141,96424;42,27750;0,30789;1,00000;3
141,94747;42,28083;0,30750;1,00000;3
141,93077;42,28417;0,30703;1,00000;3
141,91418;42,28750;0,30664;1,00000;3
141,89747;42,29083;0,30617;1,00000;3
141,88071;42,29417;0,30584;1,00000;3
141,86394;42,29750;0,30544;1,00000;3
141,84724;42,30083;0,30505;1,00000;3
141,83053;42,30417;0,30458;1,00000;3
141,81382;42,30750;0,30406;1,00000;3
141,79712;42,31083;0,30359;1,00000;3
141,78047;42,31417;0,30320;1,00000;3
141,76371;42,31750;0,30280;1,00000;3
141,74700;42,32083;0,30234;1,00000;3
141,73024;42,32417;0,30194;1,00000;3
141,71353;42,32750;0,30148;1,00000;3
141,69671;42,33083;0,30101;1,00000;3
141,67994;42,33417;0,30049;1,00000;3
141,66330;42,33750;0,29976;1,00000;3
141,64659;42,34083;0,29917;1,00000;3
141,62982;42,34417;0,29864;1,00000;3
141,61318;42,34750;0,29831;1,00000;3
141,59653;42,35083;0,29798;1,00000;3
141,57982;42,35417;0,29758;1,00000;3
141,56312;42,35750;0,29744;1,00000;3
141,54641;42,36083;0,29730;1,00000;3
141,52970;42,36417;0,29678;1,00000;3
141,51300;42,36750;0,29631;1,00000;3
141,49629;42,37083;0,29572;1,00000;3
141,47965;42,37417;0,29500;1,00000;3
141,46294;42,37750;0,29441;1,00000;3
141,44623;42,38083;0,29381;1,00000;3
141,42947;42,38417;0,29329;1,00000;3
141,41276;42,38750;0,29276;1,00000;3
141,39612;42,39083;0,29236;1,00000;3
141,37941;42,39417;0,29196;1,00000;3
141,36288;42,39750;0,29150;1,00000;3
141,34629;42,40083;0,29104;1,00000;3
141,32959;42,40417;0,29057;1,00000;3
141,31294;42,40750;0,29018;1,00000;3
141,29629;42,41083;0,28971;1,00000;3
141,27959;42,41417;0,28919;1,00000;3
141,26300;42,41750;0,28872;1,00000;3
141,24635;42,42083;0,28833;1,00000;3
141,22971;42,42417;0,28793;1,00000;3
141,21306;42,42750;0,28766;1,00000;3
141,19647;42,43083;0,28733;1,00000;3
141,17988;42,43417;0,28693;1,00000;3
141,16335;42,43750;0,28653;1,00000;3
141,14671;42,44083;0,28620;1,00000;3
141,13012;42,44417;0,28574;1,00000;3
141,11353;42,44750;0,28521;1,00000;3
141,09688;42,45083;0,28462;1,00000;3
141,08018;42,45417;0,28403;1,00000;3
141,06347;42,45750;0,28356;1,00000;3
141,04688;42,46083;0,28330;1,00000;3
141,03029;42,46417;0,28322;1,00000;3
141,01365;42,46750;0,28302;1,00000;3
140,99694;42,47083;0,28275;1,00000;3
140,98024;42,47417;0,28223;1,00000;3
140,96365;42,47750;0,28137;1,00000;3
140,94700;42,48083;0,28091;1,00000;3
140,93035;42,48417;0,28045;1,00000;3
140,91359;42,48750;0,27998;1,00000;3
140,89688;42,49083;0,27946;1,00000;3
140,88018;42,49417;0,27886;1,00000;3
140,86353;42,49750;0,27834;1,00000;3
140,84688;42,50083;0,27794;1,00000;3
140,83012;42,50417;0,27754;1,00000;3
140,81341;42,50750;0,27727;1,00000;3
140,79665;42,51083;0,27694;1,00000;3
140,77994;42,51417;0,27661;1,00000;3
140,76318;42,51750;0,27634;1,00000;3
140,74653;42,52083;0,27601;1,00000;3
140,72988;42,52417;0,27568;1,00000;3
140,71329;42,52750;0,27521;1,00000;3
140,69671;42,53083;0,27469;1,00000;3
140,68000;42,53417;0,27422;1,00000;3
140,66324;42,53750;0,27370;1,00000;3
140,64659;42,54083;0,27323;1,00000;3
140,62994;42,54417;0,27277;1,00000;3
140,61329;42,54750;0,27237;1,00000;3
140,59659;42,55083;0,27198;1,00000;3
140,57988;42,55417;0,27158;1,00000;3
140,56324;42,55750;0,27112;1,00000;3
140,54659;42,56083;0,27059;1,00000;3
140,53000;42,56417;0,27019;1,00000;3
140,51347;42,56750;0,26986;1,00000;3
140,49682;42,57083;0,26946;1,00000;3
140,48030;42,57417;0,26906;1,00000;3
140,46353;42,57750;0,26853;1,00000;3
140,44694;42,58083;0,26814;1,00000;3
140,43030;42,58417;0,26774;1,00000;3
140,41359;42,58750;0,26741;1,00000;3
140,39694;42,59083;0,26701;1,00000;3
140,38035;42,59417;0,26661;1,00000;3
140,36371;42,59750;0,26621;1,00000;3
140,34718;42,60083;0,26582;1,00000;3
140,33053;42,60417;0,26542;1,00000;3
140,31388;42,60750;0,26496;1,00000;3
140,29735;42,61083;0,26449;1,00000;3
140,28077;42,61417;0,26410;1,00000;3
140,26412;42,61750;0,26402;1,00000;3
140,24753;42,62083;0,26395;1,00000;3
140,23088;42,62417;0,26342;1,00000;3
140,21430;42,62750;0,26296;1,00000;3
140,19759;42,63083;0,26243;1,00000;3
140,18100;42,63417;0,26210;1,00000;3
140,16429;42,63750;0,26157;1,00000;3
140,14765;42,64083;0,26144;1,00000;3
140,13094;42,64417;0,26136;1,00000;3
140,11429;42,64750;0,26090;1,00000;3
140,09759;42,65083;0,26018;1,00000;3
140,08082;42,65417;0,25965;1,00000;3
140,06412;42,65750;0,25925;1,00000;3
140,04747;42,66083;0,25892;1,00000;3
140,03088;42,66417;0,25859;1,00000;3
140,01412;42,66750;0,25806;1,00000;3
139,99730;42,67083;0,25760;1,00000;3
139,98059;42,67417;0,25733;1,00000;3
139,96382;42,67750;0,25706;1,00000;3
139,94712;42,68083;0,25667;1,00000;3
139,93041;42,68417;0,25614;1,00000;3
139,91377;42,68750;0,25568;1,00000;3
139,89706;42,69083;0,25547;1,00000;3
139,88041;42,69417;0,25521;1,00000;3
139,86371;42,69750;0,25494;1,00000;3
139,84706;42,70083;0,25448;1,00000;3
139,83035;42,70417;0,25401;1,00000;3
139,81371;42,70750;0,25362;1,00000;3
139,79712;42,71083;0,25322;1,00000;3
139,78035;42,71417;0,25289;1,00000;3
139,76365;42,71750;0,25249;1,00000;3
139,74694;42,72083;0,25203;1,00000;3
139,73024;42,72417;0,25163;1,00000;3
139,71359;42,72750;0,25130;1,00000;3
139,69694;42,73083;0,25103;1,00000;3
139,68035;42,73417;0,25070;1,00000;3
139,66359;42,73750;0,25049;1,00000;3
139,64688;42,74083;0,25023;1,00000;3
139,63024;42,74417;0,24983;1,00000;3
139,61353;42,74750;0,24950;1,00000;3
139,59676;42,75083;0,24910;1,00000;3
139,58018;42,75417;0,24890;1,00000;3
139,56347;42,75750;0,24856;1,00000;3
139,54676;42,76083;0,24823;1,00000;3
139,53012;42,76417;0,24796;1,00000;3
139,51341;42,76750;0,24770;1,00000;3
139,49677;42,77083;0,24743;1,00000;3
139,48006;42,77417;0,24703;1,00000;3
139,46341;42,77750;0,24663;1,00000;3
139,44682;42,78083;0,24624;1,00000;3
139,43012;42,78417;0,24584;1,00000;3
139,41347;42,78750;0,24525;1,00000;3
139,39676;42,79083;0,24465;1,00000;3
139,38023;42,79417;0,24413;1,00000;3
139,36359;42,79750;0,24353;1,00000;3
139,34688;42,80083;0,24307;1,00000;3
139,33024;42,80417;0,24267;1,00000;3
139,31365;42,80750;0,24228;1,00000;3
139,29694;42,81083;0,24194;1,00000;3
139,28024;42,81417;0,24174;1,00000;3
139,26359;42,81750;0,24186;1,00000;3
139,24682;42,82083;0,24179;1,00000;3
139,23018;42,82417;0,24165;1,00000;3
139,21353;42,82750;0,24132;1,00000;3
139,19694;42,83083;0,24099;1,00000;3
139,18018;42,83417;0,24066;1,00000;3
139,16341;42,83750;0,24019;1,00000;3
139,14683;42,84083;0,23973;1,00000;3
139,13012;42,84417;0,23927;1,00000;3
139,11335;42,84750;0,23887;1,00000;3
139,09659;42,85083;0,23847;1,00000;3
139,07988;42,85417;0,23821;1,00000;3
139,06318;42,85750;0,23781;1,00000;3
139,04647;42,86083;0,23748;1,00000;3
139,02971;42,86417;0,23708;1,00000;3
139,01300;42,86750;0,23668;1,00000;3
138,99635;42,87083;0,23635;1,00000;3
138,97965;42,87417;0,23608;1,00000;3
138,96300;42,87750;0,23575;1,00000;3
138,94629;42,88083;0,23548;1,00000;3
138,92959;42,88417;0,23521;1,00000;3
138,91288;42,88750;0,23482;1,00000;3
138,89629;42,89083;0,23448;1,00000;3
138,87965;42,89417;0,23409;1,00000;3
138,86294;42,89750;0,23369;1,00000;3
138,84635;42,90083;0,23329;1,00000;3
138,82971;42,90417;0,23283;1,00000;3
138,81300;42,90750;0,23243;1,00000;3
138,79635;42,91083;0,23223;1,00000;3
138,77976;42,91417;0,23216;1,00000;3
138,76318;42,91750;0,23202;1,00000;3
138,74653;42,92083;0,23182;1,00000;3
138,72988;42,92417;0,23136;1,00000;3
138,71324;42,92750;0,23115;1,00000;3
138,69659;42,93083;0,23089;1,00000;3
138,67994;42,93417;0,23055;1,00000;3
138,66330;42,93750;0,23029;1,00000;3
138,64671;42,94083;0,23002;1,00000;3
138,63012;42,94417;0,22956;1,00000;3
138,61347;42,94750;0,22903;1,00000;3
138,59688;42,95083;0,22876;1,00000;3
138,58030;42,95417;0,22836;1,00000;3
138,56365;42,95750;0,22797;1,00000;3
138,54700;42,96083;0,22763;1,00000;3
138,53041;42,96417;0,22782;1,00000;3
138,51377;42,96750;0,22795;1,00000;3
138,49706;42,97083;0,22768;1,00000;3
138,48030;42,97417;0,22695;1,00000;3
138,46365;42,97750;0,22669;1,00000;3
138,44694;42,98083;0,22642;1,00000;3
138,43035;42,98417;0,22622;1,00000;3
138,41371;42,98750;0,22595;1,00000;3
138,39706;42,99083;0,22555;1,00000;3
138,38047;42,99417;0,22535;1,00000;3
138,36382;42,99750;0,22508;1,00000;3
138,34712;43,00083;0,22475;1,00000;3
138,33041;43,00417;0,22442;1,00000;3
138,31377;43,00750;0,22409;1,00000;3
138,29700;43,01083;0,22382;1,00000;3
138,28024;43,01417;0,22362;1,00000;3
138,26359;43,01750;0,22328;1,00000;3
138,24694;43,02083;0,22302;1,00000;3
138,23029;43,02417;0,22268;1,00000;3
138,21365;43,02750;0,22261;1,00000;3
138,19706;43,03083;0,22260;1,00000;3
138,18047;43,03417;0,22260;1,00000;3
138,16382;43,03750;0,22233;1,00000;3
138,14706;43,04083;0,22200;1,00000;3
138,13047;43,04417;0,22167;1,00000;3
138,11382;43,04750;0,22146;1,00000;3
138,09712;43,05083;0,22113;1,00000;3
138,08041;43,05417;0,22067;1,00000;3
138,06376;43,05750;0,22034;1,00000;3
138,04712;43,06083;0,21994;1,00000;3
138,03053;43,06417;0,21954;1,00000;3
138,01388;43,06750;0,21927;1,00000;3
137,99729;43,07083;0,21894;1,00000;3
137,98071;43,07417;0,21867;1,00000;3
137,96406;43,07750;0,21834;1,00000;3
137,94747;43,08083;0,21794;1,00000;3
137,93077;43,08417;0,21774;1,00000;3
137,91412;43,08750;0,21754;1,00000;3
137,89747;43,09083;0,21734;1,00000;3
137,88088;43,09417;0,21707;1,00000;3
137,86435;43,09750;0,21693;1,00000;3
137,84765;43,10083;0,21673;1,00000;3
137,83100;43,10417;0,21653;1,00000;3
137,81435;43,10750;0,21633;1,00000;3
137,79771;43,11083;0,21612;1,00000;3
137,78100;43,11417;0,21586;1,00000;3
137,76435;43,11750;0,21565;1,00000;3
137,74759;43,12083;0,21545;1,00000;3
137,73094;43,12417;0,21531;1,00000;3
137,71429;43,12750;0,21511;1,00000;3
137,69759;43,13083;0,21497;1,00000;3
137,68088;43,13417;0,21477;1,00000;3
137,66418;43,13750;0,21457;1,00000;3
137,64753;43,14083;0,21443;1,00000;3
137,63088;43,14417;0,21423;1,00000;3
137,61412;43,14750;0,21409;1,00000;3
137,59741;43,15083;0,21383;1,00000;3
137,58065;43,15417;0,21356;1,00000;3
137,56394;43,15750;0,21329;1,00000;3
137,54729;43,16083;0,21309;1,00000;3
137,53059;43,16417;0,21276;1,00000;3
137,51394;43,16750;0,21249;1,00000;3
137,49724;43,17083;0,21222;1,00000;3
137,48053;43,17417;0,21195;1,00000;3
137,46382;43,17750;0,21169;1,00000;3
137,44718;43,18083;0,21142;1,00000;3
137,43047;43,18417;0,21115;1,00000;3
137,41382;43,18750;0,21089;1,00000;3
137,39712;43,19083;0,21062;1,00000;3
137,38041;43,19417;0,21042;1,00000;3
137,36377;43,19750;0,21041;1,00000;3
137,34706;43,20083;0,21034;1,00000;3
137,33047;43,20417;0,21033;1,00000;3
137,31382;43,20750;0,21026;1,00000;3
137,29712;43,21083;0,21012;1,00000;3
137,28047;43,21417;0,20966;1,00000;3
137,26377;43,21750;0,20906;1,00000;3
137,24706;43,22083;0,20854;1,00000;3
137,23035;43,22417;0,20814;1,00000;3
137,21371;43,22750;0,20787;1,00000;3
137,19700;43,23083;0,20774;1,00000;3
137,18035;43,23417;0,20747;1,00000;3
137,16365;43,23750;0,20727;1,00000;3
137,14694;43,24083;0,20726;1,00000;3
137,13024;43,24417;0,20725;1,00000;3
137,11359;43,24750;0,20718;1,00000;3
137,09688;43,25083;0,20672;1,00000;3
137,08024;43,25417;0,20651;1,00000;3
137,06359;43,25750;0,20644;1,00000;3
137,04682;43,26083;0,20644;1,00000;3
137,03006;43,26417;0,20643;1,00000;3
137,01341;43,26750;0,20636;1,00000;3
136,99665;43,27083;0,20615;1,00000;3
136,97994;43,27417;0,20595;1,00000;3
136,96323;43,27750;0,20588;1,00000;3
136,94653;43,28083;0,20568;1,00000;3
136,92982;43,28417;0,20548;1,00000;3
136,91312;43,28750;0,20527;1,00000;3
136,89635;43,29083;0,20514;1,00000;3
136,87965;43,29417;0,20500;1,00000;3
136,86294;43,29750;0,20480;1,00000;3
136,84618;43,30083;0,20453;1,00000;3
136,82947;43,30417;0,20407;1,00000;3
136,81282;43,30750;0,20373;1,00000;3
136,79606;43,31083;0,20347;1,00000;3
136,77935;43,31417;0,20333;1,00000;3
136,76271;43,31750;0,20319;1,00000;3
136,74606;43,32083;0,20292;1,00000;3
136,72929;43,32417;0,20259;1,00000;3
136,71265;43,32750;0,20245;1,00000;3
136,69588;43,33083;0,20219;1,00000;3
136,67918;43,33417;0,20192;1,00000;3
136,66241;43,33750;0,20165;1,00000;3
136,64577;43,34083;0,20145;1,00000;3
136,62912;43,34417;0,20151;1,00000;3
136,61247;43,34750;0,20150;1,00000;3
136,59582;43,35083;0,20143;1,00000;3
136,57918;43,35417;0,20136;1,00000;3
136,56253;43,35750;0,20129;1,00000;3
136,54594;43,36083;0,20102;1,00000;3
136,52930;43,36417;0,20075;1,00000;3
136,51253;43,36750;0,20048;1,00000;3
136,49577;43,37083;0,20028;1,00000;3
136,47906;43,37417;0,20014;1,00000;3
136,46241;43,37750;0,20014;1,00000;3
136,44582;43,38083;0,20020;1,00000;3
136,42924;43,38417;0,20012;1,00000;3
136,41277;43,38750;0,20005;1,00000;3
136,39618;43,39083;0,19991;1,00000;3
136,37965;43,39417;0,19965;1,00000;3
136,36300;43,39750;0,19944;1,00000;3
136,34629;43,40083;0,19898;1,00000;3
136,32965;43,40417;0,19884;1,00000;3
136,31294;43,40750;0,19871;1,00000;3
136,29635;43,41083;0,19857;1,00000;3
136,27971;43,41417;0,19837;1,00000;3
136,26300;43,41750;0,19823;1,00000;3
136,24629;43,42083;0,19803;1,00000;3
136,22971;43,42417;0,19783;1,00000;3
136,21306;43,42750;0,19762;1,00000;3
136,19641;43,43083;0,19749;1,00000;3
136,17976;43,43417;0,19728;1,00000;3
136,16306;43,43750;0,19715;1,00000;3
136,14635;43,44083;0,19701;1,00000;3
136,12959;43,44417;0,19700;1,00000;3
136,11294;43,44750;0,19700;1,00000;3
136,09618;43,45083;0,19686;1,00000;3
136,07947;43,45417;0,19653;1,00000;3
136,06276;43,45750;0,19639;1,00000;3
136,04606;43,46083;0,19625;1,00000;3
136,02935;43,46417;0,19612;1,00000;3
136,01265;43,46750;0,19598;1,00000;3
135,99594;43,47083;0,19578;1,00000;3
135,97924;43,47417;0,19557;1,00000;3
135,96259;43,47750;0,19544;1,00000;3
135,94594;43,48083;0,19536;1,00000;3
135,92924;43,48417;0,19523;1,00000;3
135,91253;43,48750;0,19529;1,00000;3
135,89582;43,49083;0,19534;1,00000;3
135,87918;43,49417;0,19527;1,00000;3
135,86247;43,49750;0,19513;1,00000;3
135,84582;43,50083;0,19474;1,00000;3
135,82918;43,50417;0,19447;1,00000;3
135,81253;43,50750;0,19427;1,00000;3
135,79588;43,51083;0,19426;1,00000;3
135,77930;43,51417;0,19412;1,00000;3
135,76259;43,51750;0,19399;1,00000;3
135,74600;43,52083;0,19385;1,00000;3
135,72929;43,52417;0,19378;1,00000;3
135,71265;43,52750;0,19364;1,00000;3
135,69594;43,53083;0,19350;1,00000;3
135,67918;43,53417;0,19336;1,00000;3
135,66247;43,53750;0,19323;1,00000;3
135,64577;43,54083;0,19303;1,00000;3
135,62912;43,54417;0,19282;1,00000;3
135,61241;43,54750;0,19275;1,00000;3
135,59577;43,55083;0,19261;1,00000;3
135,57918;43,55417;0,19241;1,00000;3
135,56253;43,55750;0,19227;1,00000;3
135,54571;43,56083;0,19207;1,00000;3
135,52906;43,56417;0,19194;1,00000;3
135,51235;43,56750;0,19186;1,00000;3
135,49571;43,57083;0,19192;1,00000;3
135,47912;43,57417;0,19185;1,00000;3
135,46247;43,57750;0,19171;1,00000;3
135,44582;43,58083;0,19158;1,00000;3
135,42924;43,58417;0,19150;1,00000;3
135,41265;43,58750;0,19143;1,00000;3
135,39606;43,59083;0,19136;1,00000;3
135,37941;43,59417;0,19122;1,00000;3
135,36288;43,59750;0,19102;1,00000;3
135,34623;43,60083;0,19088;1,00000;3
135,32953;43,60417;0,19042;1,00000;3
135,31282;43,60750;0,19022;1,00000;3
135,29606;43,61083;0,19008;1,00000;3
135,27935;43,61417;0,18994;1,00000;3
135,26282;43,61750;0,19000;1,00000;3
135,24618;43,62083;0,18999;1,00000;3
135,22947;43,62417;0,19005;1,00000;3
135,21276;43,62750;0,19011;1,00000;3
135,19606;43,63083;0,19010;1,00000;3
135,17929;43,63417;0,19010;1,00000;3
135,16259;43,63750;0,18970;1,00000;3
135,14582;43,64083;0,18924;1,00000;3
135,12906;43,64417;0,18903;1,00000;3
135,11235;43,64750;0,18883;1,00000;3
135,09571;43,65083;0,18876;1,00000;3
135,07906;43,65417;0,18875;1,00000;3
135,06241;43,65750;0,18875;1,00000;3
135,04582;43,66083;0,18861;1,00000;3
135,02918;43,66417;0,18854;1,00000;3
135,01259;43,66750;0,18853;1,00000;3
134,99594;43,67083;0,18846;1,00000;3
134,97923;43,67417;0,18839;1,00000;3
134,96253;43,67750;0,18818;1,00000;3
134,94594;43,68083;0,18805;1,00000;3
134,92941;43,68417;0,18804;1,00000;3
134,91288;43,68750;0,18797;1,00000;3
134,89629;43,69083;0,18776;1,00000;3
134,87971;43,69417;0,18756;1,00000;3
134,86306;43,69750;0,18743;1,00000;3
134,84647;43,70083;0,18735;1,00000;3
134,82988;43,70417;0,18709;1,00000;3
134,81318;43,70750;0,18695;1,00000;3
134,79641;43,71083;0,18675;1,00000;3
134,77971;43,71417;0,18654;1,00000;3
134,76306;43,71750;0,18641;1,00000;3
134,74641;43,72083;0,18634;1,00000;3
134,72971;43,72417;0,18626;1,00000;3
134,71306;43,72750;0,18613;1,00000;3
134,69641;43,73083;0,18605;1,00000;3
134,67977;43,73417;0,18598;1,00000;3
134,66306;43,73750;0,18604;1,00000;3
134,64624;43,74083;0,18603;1,00000;3
134,62947;43,74417;0,18596;1,00000;3
134,61271;43,74750;0,18550;1,00000;3
134,59594;43,75083;0,18523;1,00000;3
134,57930;43,75417;0,18516;1,00000;3
134,56259;43,75750;0,18509;1,00000;3
134,54582;43,76083;0,18508;1,00000;3
134,52912;43,76417;0,18507;1,00000;3
134,51247;43,76750;0,18500;1,00000;3
134,49577;43,77083;0,18486;1,00000;3
134,47900;43,77417;0,18473;1,00000;3
134,46224;43,77750;0,18465;1,00000;3
134,44553;43,78083;0,18445;1,00000;3
134,42882;43,78417;0,18425;1,00000;3
134,41212;43,78750;0,18411;1,00000;3
134,39541;43,79083;0,18404;1,00000;3
134,37871;43,79417;0,18397;1,00000;3
134,36206;43,79750;0,18390;1,00000;3
134,34535;43,80083;0,18382;1,00000;3
134,32871;43,80417;0,18375;1,00000;3
134,31212;43,80750;0,18368;1,00000;3
134,29547;43,81083;0,18354;1,00000;3
134,27888;43,81417;0,18341;1,00000;3
134,26235;43,81750;0,18333;1,00000;3
134,24577;43,82083;0,18320;1,00000;3
134,22912;43,82417;0,18306;1,00000;3
134,21259;43,82750;0,18292;1,00000;3
134,19600;43,83083;0,18285;1,00000;3
134,17947;43,83417;0,18284;1,00000;3
134,16294;43,83750;0,18277;1,00000;3
134,14629;43,84083;0,18283;1,00000;3
134,12971;43,84417;0,18282;1,00000;3
134,11318;43,84750;0,18282;1,00000;3
134,09671;43,85083;0,18287;1,00000;3
134,08018;43,85417;0,18280;1,00000;3
134,06365;43,85750;0,18273;1,00000;3
134,04712;43,86083;0,18266;1,00000;3
134,03047;43,86417;0,18259;1,00000;3
134,01388;43,86750;0,18251;1,00000;3
133,99729;43,87083;0,18244;1,00000;3
133,98065;43,87417;0,18237;1,00000;3
133,96406;43,87750;0,18204;1,00000;3
133,94747;43,88083;0,18203;1,00000;3
133,93082;43,88417;0,18202;1,00000;3
133,91418;43,88750;0,18195;1,00000;3
133,89753;43,89083;0,18175;1,00000;3
133,88082;43,89417;0,18148;1,00000;3
133,86412;43,89750;0,18141;1,00000;3
133,84735;43,90083;0,18134;1,00000;3
133,83065;43,90417;0,18114;1,00000;3
133,81394;43,90750;0,18106;1,00000;3
133,79718;43,91083;0,18099;1,00000;3
133,78047;43,91417;0,18085;1,00000;3
133,76382;43,91750;0,18065;1,00000;3
133,74718;43,92083;0,18045;1,00000;3
133,73053;43,92417;0,18031;1,00000;3
133,71382;43,92750;0,18017;1,00000;3
133,69712;43,93083;0,18004;1,00000;3
133,68035;43,93417;0,17990;1,00000;3
133,66365;43,93750;0,17983;1,00000;3
133,64694;43,94083;0,17982;1,00000;3
133,63029;43,94417;0,17981;1,00000;3
133,61353;43,94750;0,17994;1,00000;3
133,59682;43,95083;0,17987;1,00000;3
133,58024;43,95417;0,17973;1,00000;3
133,56371;43,95750;0,17966;1,00000;3
133,54700;43,96083;0,17958;1,00000;3
133,53023;43,96417;0,17945;1,00000;3
133,51359;43,96750;0,17931;1,00000;3
133,49694;43,97083;0,17917;1,00000;3
133,48018;43,97417;0,17917;1,00000;3
133,46347;43,97750;0,17922;1,00000;3
133,44676;43,98083;0,17915;1,00000;3
133,43000;43,98417;0,17908;1,00000;3
133,41329;43,98750;0,17907;1,00000;3
133,39671;43,99083;0,17907;1,00000;3

