#EXPORTTYPE:DATA SINGLE
#FILE:AP52DE55 PURE 10K.ngb-sd7
#FORMAT:NETZSCH5
#FTYPE:ANSI
#IDENTITY:AP52DE55 PURE 10K/min
#DECIMAL:COMMA
#SEPARATOR:SEMICOLON
#MTYPE:DSC
#INSTRUMENT:NETZSCH DSC 204F1 Phoenix
#PROJECT:Gutkowski praca in¿
#DATE/TIME:08.01.2016 12:10
#CORR. FILE:
#TEMPCAL:TCALZERO.TMX
#SENSITIVITY:SENSZERO.EXX
#LABORATORY:206
#OPERATOR:MIC
#REMARK:
#SAMPLE:AP52DE55 PURE 10K/min
#SAMPLE MASS /mg:11,03
#MATERIAL:PU
#REFERENCE:correction
#REFERENCE MASS /mg:0
#TYPE OF CRUCIBLE:Pan Al, closed
#SAMPLE CRUCIBLE MASS /mg:0
#REFERENCE CRUCIBLE MASS /mg:39,35
#M.RANGE /µV:5000
#TAU-R:---
#CORR. CODE:000
#EXO:+1
#RANGE:20°C....250°C/-10,0....15,0K/min
#SEGMENT:S3/3
#SEG. 1:20°C/15,0(K/min)/250°C
#SEG. 2:250°C/00:05/250°C
#SEG. 3:250°C/10,0(K/min)/30°C

##Temp./°C;Time/min;DSC/(uV/mg);Sensit./(uV/mW);Segment
159,80135;29,35583;9,8382e-002;1,00000;3
159,76794;29,35917;9,8367e-002;1,00000;3
159,73453;29,36250;9,8421e-002;1,00000;3
159,70118;29,36583;9,8614e-002;1,00000;3
159,66777;29,36917;9,8599e-002;1,00000;3
159,63441;29,37250;9,8584e-002;1,00000;3
159,60112;29,37583;9,8708e-002;1,00000;3
159,56777;29,37917;9,8762e-002;1,00000;3
159,53435;29,38250;9,8886e-002;1,00000;3
159,50100;29,38583;9,9078e-002;1,00000;3
159,46765;29,38917;9,9202e-002;1,00000;3
159,43435;29,39250;9,9257e-002;1,00000;3
159,40094;29,39583;9,9241e-002;1,00000;3
159,36776;29,39917;9,9296e-002;1,00000;3
159,33447;29,40250;9,9281e-002;1,00000;3
159,30118;29,40583;9,9405e-002;1,00000;3
159,26788;29,40917;9,9459e-002;1,00000;3
159,23459;29,41250;9,9582e-002;1,00000;3
159,20123;29,41583;9,9706e-002;1,00000;3
159,16800;29,41917;9,9691e-002;1,00000;3
159,13465;29,42250;9,9745e-002;1,00000;3
159,10135;29,42583;9,9801e-002;1,00000;3
159,06794;29,42917;9,9924e-002;1,00000;3
159,03464;29,43250;9,9909e-002;1,00000;3
159,00135;29,43583;9,9963e-002;1,00000;3
158,96800;29,43917;    0,10002;1,00000;3
158,93465;29,44250;    0,10021;1,00000;3
158,90129;29,44583;    0,10047;1,00000;3
158,86800;29,44917;    0,10066;1,00000;3
158,83471;29,45250;    0,10086;1,00000;3
158,80123;29,45583;    0,10091;1,00000;3
158,76782;29,45917;    0,10097;1,00000;3
158,73447;29,46250;    0,10102;1,00000;3
158,70112;29,46583;    0,10101;1,00000;3
158,66765;29,46917;    0,10120;1,00000;3
158,63423;29,47250;    0,10132;1,00000;3
158,60076;29,47583;    0,10145;1,00000;3
158,56729;29,47917;    0,10150;1,00000;3
158,53388;29,48250;    0,10148;1,00000;3
158,50041;29,48583;    0,10154;1,00000;3
158,46694;29,48917;    0,10159;1,00000;3
158,43353;29,49250;    0,10165;1,00000;3
158,40012;29,49583;    0,10170;1,00000;3
158,36676;29,49917;    0,10183;1,00000;3
158,33335;29,50250;    0,10202;1,00000;3
158,29988;29,50583;    0,10214;1,00000;3
158,26647;29,50917;    0,10220;1,00000;3
158,23306;29,51250;    0,10232;1,00000;3
158,19971;29,51583;    0,10251;1,00000;3
158,16629;29,51917;    0,10264;1,00000;3
158,13282;29,52250;    0,10276;1,00000;3
158,09953;29,52583;    0,10288;1,00000;3
158,06629;29,52917;    0,10294;1,00000;3
158,03300;29,53250;    0,10299;1,00000;3
157,99976;29,53583;    0,10305;1,00000;3
157,96647;29,53917;    0,10317;1,00000;3
157,93318;29,54250;    0,10329;1,00000;3
157,89988;29,54583;    0,10362;1,00000;3
157,86653;29,54917;    0,10389;1,00000;3
157,83329;29,55250;    0,10415;1,00000;3
157,80000;29,55583;    0,10434;1,00000;3
157,76676;29,55917;    0,10433;1,00000;3
157,73359;29,56250;    0,10424;1,00000;3
157,70041;29,56583;    0,10423;1,00000;3
157,66718;29,56917;    0,10428;1,00000;3
157,63394;29,57250;    0,10434;1,00000;3
157,60071;29,57583;    0,10439;1,00000;3
157,56747;29,57917;    0,10451;1,00000;3
157,53412;29,58250;    0,10464;1,00000;3
157,50082;29,58583;    0,10476;1,00000;3
157,46759;29,58917;    0,10482;1,00000;3
157,43429;29,59250;    0,10487;1,00000;3
157,40106;29,59583;    0,10492;1,00000;3
157,36782;29,59917;    0,10505;1,00000;3
157,33453;29,60250;    0,10531;1,00000;3
157,30129;29,60583;    0,10564;1,00000;3
157,26806;29,60917;    0,10576;1,00000;3
157,23482;29,61250;    0,10582;1,00000;3
157,20159;29,61583;    0,10594;1,00000;3
157,16818;29,61917;    0,10607;1,00000;3
157,13476;29,62250;    0,10612;1,00000;3
157,10141;29,62583;    0,10631;1,00000;3
157,06812;29,62917;    0,10637;1,00000;3
157,03482;29,63250;    0,10642;1,00000;3
157,00147;29,63583;    0,10648;1,00000;3
156,96812;29,63917;    0,10653;1,00000;3
156,93476;29,64250;    0,10645;1,00000;3
156,90141;29,64583;    0,10657;1,00000;3
156,86806;29,64917;    0,10669;1,00000;3
156,83476;29,65250;    0,10682;1,00000;3
156,80153;29,65583;    0,10708;1,00000;3
156,76823;29,65917;    0,10727;1,00000;3
156,73488;29,66250;    0,10753;1,00000;3
156,70159;29,66583;    0,10773;1,00000;3
156,66823;29,66917;    0,10792;1,00000;3
156,63482;29,67250;    0,10811;1,00000;3
156,60159;29,67583;    0,10830;1,00000;3
156,56835;29,67917;    0,10850;1,00000;3
156,53512;29,68250;    0,10862;1,00000;3
156,50176;29,68583;    0,10881;1,00000;3
156,46841;29,68917;    0,10887;1,00000;3
156,43518;29,69250;    0,10892;1,00000;3
156,40200;29,69583;    0,10891;1,00000;3
156,36871;29,69917;    0,10882;1,00000;3
156,33541;29,70250;    0,10881;1,00000;3
156,30212;29,70583;    0,10879;1,00000;3
156,26876;29,70917;    0,10878;1,00000;3
156,23541;29,71250;    0,10883;1,00000;3
156,20206;29,71583;    0,10889;1,00000;3
156,16871;29,71917;    0,10901;1,00000;3
156,13535;29,72250;    0,10927;1,00000;3
156,10194;29,72583;    0,10953;1,00000;3
156,06859;29,72917;    0,10980;1,00000;3
156,03518;29,73250;    0,11040;1,00000;3
156,00176;29,73583;    0,11094;1,00000;3
155,96835;29,73917;    0,11127;1,00000;3
155,93506;29,74250;    0,11160;1,00000;3
155,90165;29,74583;    0,11173;1,00000;3
155,86824;29,74917;    0,11178;1,00000;3
155,83482;29,75250;    0,11163;1,00000;3
155,80141;29,75583;    0,11168;1,00000;3
155,76794;29,75917;    0,11188;1,00000;3
155,73447;29,76250;    0,11200;1,00000;3
155,70100;29,76583;    0,11212;1,00000;3
155,66759;29,76917;    0,11239;1,00000;3
155,63412;29,77250;    0,11258;1,00000;3
155,60071;29,77583;    0,11284;1,00000;3
155,56735;29,77917;    0,11296;1,00000;3
155,53400;29,78250;    0,11302;1,00000;3
155,50065;29,78583;    0,11293;1,00000;3
155,46729;29,78917;    0,11292;1,00000;3
155,43394;29,79250;    0,11297;1,00000;3
155,40059;29,79583;    0,11310;1,00000;3
155,36718;29,79917;    0,11336;1,00000;3
155,33388;29,80250;    0,11355;1,00000;3
155,30053;29,80583;    0,11374;1,00000;3
155,26729;29,80917;    0,11407;1,00000;3
155,23406;29,81250;    0,11434;1,00000;3
155,20082;29,81583;    0,11467;1,00000;3
155,16759;29,81917;    0,11493;1,00000;3
155,13435;29,82250;    0,11512;1,00000;3
155,10106;29,82583;    0,11532;1,00000;3
155,06782;29,82917;    0,11558;1,00000;3
155,03465;29,83250;    0,11584;1,00000;3
155,00129;29,83583;    0,11617;1,00000;3
154,96806;29,83917;    0,11643;1,00000;3
154,93482;29,84250;    0,11683;1,00000;3
154,90159;29,84583;    0,11709;1,00000;3
154,86841;29,84917;    0,11743;1,00000;3
154,83518;29,85250;    0,11776;1,00000;3
154,80188;29,85583;    0,11802;1,00000;3
154,76853;29,85917;    0,11828;1,00000;3
154,73518;29,86250;    0,11854;1,00000;3
154,70176;29,86583;    0,11887;1,00000;3
154,66835;29,86917;    0,11948;1,00000;3
154,63506;29,87250;    0,11960;1,00000;3
154,60177;29,87583;    0,11980;1,00000;3
154,56847;29,87917;    0,11999;1,00000;3
154,53512;29,88250;    0,12025;1,00000;3
154,50182;29,88583;    0,12037;1,00000;3
154,46841;29,88917;    0,12050;1,00000;3
154,43506;29,89250;    0,12055;1,00000;3
154,40171;29,89583;    0,12061;1,00000;3
154,36830;29,89917;    0,12087;1,00000;3
154,33494;29,90250;    0,12099;1,00000;3
154,30153;29,90583;    0,12112;1,00000;3
154,26818;29,90917;    0,12131;1,00000;3
154,23482;29,91250;    0,12171;1,00000;3
154,20153;29,91583;    0,12190;1,00000;3
154,16829;29,91917;    0,12203;1,00000;3
154,13500;29,92250;    0,12236;1,00000;3
154,10177;29,92583;    0,12269;1,00000;3
154,06841;29,92917;    0,12309;1,00000;3
154,03512;29,93250;    0,12328;1,00000;3
154,00182;29,93583;    0,12347;1,00000;3
153,96853;29,93917;    0,12367;1,00000;3
153,93523;29,94250;    0,12407;1,00000;3
153,90200;29,94583;    0,12447;1,00000;3
153,86871;29,94917;    0,12480;1,00000;3
153,83541;29,95250;    0,12506;1,00000;3
153,80224;29,95583;    0,12539;1,00000;3
153,76888;29,95917;    0,12579;1,00000;3
153,73559;29,96250;    0,12612;1,00000;3
153,70223;29,96583;    0,12631;1,00000;3
153,66894;29,96917;    0,12658;1,00000;3
153,63559;29,97250;    0,12677;1,00000;3
153,60223;29,97583;    0,12696;1,00000;3
153,56882;29,97917;    0,12722;1,00000;3
153,53541;29,98250;    0,12756;1,00000;3
153,50206;29,98583;    0,12789;1,00000;3
153,46882;29,98917;    0,12815;1,00000;3
153,43541;29,99250;    0,12848;1,00000;3
153,40212;29,99583;    0,12895;1,00000;3
153,36882;29,99917;    0,12907;1,00000;3
153,33547;30,00250;    0,12899;1,00000;3
153,30218;30,00583;    0,12904;1,00000;3
153,26882;30,00917;    0,12930;1,00000;3
153,23541;30,01250;    0,12950;1,00000;3
153,20212;30,01583;    0,12976;1,00000;3
153,16876;30,01917;    0,13037;1,00000;3
153,13553;30,02250;    0,13070;1,00000;3
153,10223;30,02583;    0,13103;1,00000;3
153,06900;30,02917;    0,13157;1,00000;3
153,03576;30,03250;    0,13197;1,00000;3
153,00253;30,03583;    0,13237;1,00000;3
152,96929;30,03917;    0,13284;1,00000;3
152,93606;30,04250;    0,13338;1,00000;3
152,90265;30,04583;    0,13384;1,00000;3
152,86947;30,04917;    0,13431;1,00000;3
152,83618;30,05250;    0,13471;1,00000;3
152,80282;30,05583;    0,13484;1,00000;3
152,76959;30,05917;    0,13496;1,00000;3
152,73629;30,06250;    0,13536;1,00000;3
152,70300;30,06583;    0,13576;1,00000;3
152,66971;30,06917;    0,13616;1,00000;3
152,63641;30,07250;    0,13656;1,00000;3
152,60306;30,07583;    0,13682;1,00000;3
152,56965;30,07917;    0,13736;1,00000;3
152,53629;30,08250;    0,13790;1,00000;3
152,50294;30,08583;    0,13865;1,00000;3
152,46959;30,08917;    0,13919;1,00000;3
152,43624;30,09250;    0,13972;1,00000;3
152,40288;30,09583;    0,14026;1,00000;3
152,36941;30,09917;    0,14066;1,00000;3
152,33600;30,10250;    0,14113;1,00000;3
152,30253;30,10583;    0,14167;1,00000;3
152,26906;30,10917;    0,14214;1,00000;3
152,23565;30,11250;    0,14233;1,00000;3
152,20218;30,11583;    0,14239;1,00000;3
152,16876;30,11917;    0,14237;1,00000;3
152,13541;30,12250;    0,14257;1,00000;3
152,10206;30,12583;    0,14331;1,00000;3
152,06865;30,12917;    0,14357;1,00000;3
152,03535;30,13250;    0,14411;1,00000;3
152,00206;30,13583;    0,14472;1,00000;3
151,96871;30,13917;    0,14567;1,00000;3
151,93529;30,14250;    0,14621;1,00000;3
151,90194;30,14583;    0,14668;1,00000;3
151,86853;30,14917;    0,14715;1,00000;3
151,83512;30,15250;    0,14762;1,00000;3
151,80188;30,15583;    0,14802;1,00000;3
151,76859;30,15917;    0,14849;1,00000;3
151,73529;30,16250;    0,14896;1,00000;3
151,70200;30,16583;    0,14936;1,00000;3
151,66864;30,16917;    0,14983;1,00000;3
151,63529;30,17250;    0,15044;1,00000;3
151,60194;30,17583;    0,15104;1,00000;3
151,56859;30,17917;    0,15172;1,00000;3
151,53523;30,18250;    0,15233;1,00000;3
151,50194;30,18583;    0,15294;1,00000;3
151,46859;30,18917;    0,15347;1,00000;3
151,43529;30,19250;    0,15401;1,00000;3
151,40200;30,19583;    0,15476;1,00000;3
151,36876;30,19917;    0,15544;1,00000;3
151,33553;30,20250;    0,15604;1,00000;3
151,30235;30,20583;    0,15665;1,00000;3
151,26912;30,20917;    0,15719;1,00000;3
151,23588;30,21250;    0,15780;1,00000;3
151,20259;30,21583;    0,15847;1,00000;3
151,16923;30,21917;    0,15901;1,00000;3
151,13594;30,22250;    0,15962;1,00000;3
151,10271;30,22583;    0,16037;1,00000;3
151,06947;30,22917;    0,16104;1,00000;3
151,03623;30,23250;    0,16172;1,00000;3
151,00306;30,23583;    0,16233;1,00000;3
150,96976;30,23917;    0,16294;1,00000;3
150,93641;30,24250;    0,16334;1,00000;3
150,90312;30,24583;    0,16353;1,00000;3
150,86977;30,24917;    0,16386;1,00000;3
150,83641;30,25250;    0,16426;1,00000;3
150,80306;30,25583;    0,16535;1,00000;3
150,76965;30,25917;    0,16644;1,00000;3
150,73629;30,26250;    0,16747;1,00000;3
150,70300;30,26583;    0,16814;1,00000;3
150,66947;30,26917;    0,16847;1,00000;3
150,63612;30,27250;    0,16881;1,00000;3
150,60277;30,27583;    0,16962;1,00000;3
150,56941;30,27917;    0,17037;1,00000;3
150,53612;30,28250;    0,17132;1,00000;3
150,50283;30,28583;    0,17234;1,00000;3
150,46947;30,28917;    0,17316;1,00000;3
150,43606;30,29250;    0,17384;1,00000;3
150,40271;30,29583;    0,17451;1,00000;3
150,36935;30,29917;    0,17519;1,00000;3
150,33594;30,30250;    0,17593;1,00000;3
150,30253;30,30583;    0,17675;1,00000;3
150,26918;30,30917;    0,17757;1,00000;3
150,23582;30,31250;    0,17852;1,00000;3
150,20235;30,31583;    0,17954;1,00000;3
150,16894;30,31917;    0,18043;1,00000;3
150,13547;30,32250;    0,18145;1,00000;3
150,10218;30,32583;    0,18233;1,00000;3
150,06882;30,32917;    0,18329;1,00000;3
150,03553;30,33250;    0,18403;1,00000;3
150,00218;30,33583;    0,18464;1,00000;3
149,96876;30,33917;    0,18532;1,00000;3
149,93529;30,34250;    0,18613;1,00000;3
149,90194;30,34583;    0,18695;1,00000;3
149,86847;30,34917;    0,18776;1,00000;3
149,83500;30,35250;    0,18872;1,00000;3
149,80159;30,35583;    0,18995;1,00000;3
149,76829;30,35917;    0,19083;1,00000;3
149,73500;30,36250;    0,19158;1,00000;3
149,70165;30,36583;    0,19239;1,00000;3
149,66823;30,36917;    0,19328;1,00000;3
149,63494;30,37250;    0,19409;1,00000;3
149,60153;30,37583;    0,19505;1,00000;3
149,56818;30,37917;    0,19586;1,00000;3
149,53488;30,38250;    0,19674;1,00000;3
149,50153;30,38583;    0,19770;1,00000;3
149,46817;30,38917;    0,19900;1,00000;3
149,43482;30,39250;    0,20016;1,00000;3
149,40147;30,39583;    0,20125;1,00000;3
149,36817;30,39917;    0,20248;1,00000;3
149,33476;30,40250;    0,20371;1,00000;3
149,30141;30,40583;    0,20494;1,00000;3
149,26817;30,40917;    0,20603;1,00000;3
149,23494;30,41250;    0,20719;1,00000;3
149,20153;30,41583;    0,20836;1,00000;3
149,16812;30,41917;    0,20945;1,00000;3
149,13476;30,42250;    0,21061;1,00000;3
149,10141;30,42583;    0,21177;1,00000;3
149,06812;30,42917;    0,21286;1,00000;3
149,03482;30,43250;    0,21402;1,00000;3
149,00147;30,43583;    0,21505;1,00000;3
148,96806;30,43917;    0,21614;1,00000;3
148,93470;30,44250;    0,21716;1,00000;3
148,90135;30,44583;    0,21825;1,00000;3
148,86812;30,44917;    0,21941;1,00000;3
148,83476;30,45250;    0,22071;1,00000;3
148,80135;30,45583;    0,22194;1,00000;3
148,76794;30,45917;    0,22338;1,00000;3
148,73465;30,46250;    0,22475;1,00000;3
148,70129;30,46583;    0,22584;1,00000;3
148,66788;30,46917;    0,22693;1,00000;3
148,63465;30,47250;    0,22803;1,00000;3
148,60129;30,47583;    0,22919;1,00000;3
148,56788;30,47917;    0,23062;1,00000;3
148,53453;30,48250;    0,23213;1,00000;3
148,50112;30,48583;    0,23350;1,00000;3
148,46782;30,48917;    0,23487;1,00000;3
148,43453;30,49250;    0,23610;1,00000;3
148,40118;30,49583;    0,23747;1,00000;3
148,36782;30,49917;    0,23877;1,00000;3
148,33447;30,50250;    0,24000;1,00000;3
148,30106;30,50583;    0,24123;1,00000;3
148,26776;30,50917;    0,24259;1,00000;3
148,23441;30,51250;    0,24410;1,00000;3
148,20106;30,51583;    0,24561;1,00000;3
148,16765;30,51917;    0,24705;1,00000;3
148,13429;30,52250;    0,24862;1,00000;3
148,10094;30,52583;    0,25006;1,00000;3
148,06753;30,52917;    0,25157;1,00000;3
148,03423;30,53250;    0,25314;1,00000;3
148,00094;30,53583;    0,25479;1,00000;3
147,96765;30,53917;    0,25623;1,00000;3
147,93429;30,54250;    0,25759;1,00000;3
147,90082;30,54583;    0,25910;1,00000;3
147,86741;30,54917;    0,26061;1,00000;3
147,83406;30,55250;    0,26205;1,00000;3
147,80059;30,55583;    0,26348;1,00000;3
147,76712;30,55917;    0,26506;1,00000;3
147,73376;30,56250;    0,26664;1,00000;3
147,70035;30,56583;    0,26842;1,00000;3
147,66700;30,56917;    0,27007;1,00000;3
147,63365;30,57250;    0,27157;1,00000;3
147,60029;30,57583;    0,27308;1,00000;3
147,56682;30,57917;    0,27445;1,00000;3
147,53347;30,58250;    0,27588;1,00000;3
147,50012;30,58583;    0,27739;1,00000;3
147,46670;30,58917;    0,27897;1,00000;3
147,43323;30,59250;    0,28054;1,00000;3
147,39982;30,59583;    0,28240;1,00000;3
147,36647;30,59917;    0,28432;1,00000;3
147,33312;30,60250;    0,28617;1,00000;3
147,29976;30,60583;    0,28789;1,00000;3
147,26641;30,60917;    0,28960;1,00000;3
147,23317;30,61250;    0,29138;1,00000;3
147,19994;30,61583;    0,29303;1,00000;3
147,16647;30,61917;    0,29454;1,00000;3
147,13312;30,62250;    0,29625;1,00000;3
147,09976;30,62583;    0,29790;1,00000;3
147,06647;30,62917;    0,29968;1,00000;3
147,03318;30,63250;    0,30146;1,00000;3
146,99982;30,63583;    0,30318;1,00000;3
146,96647;30,63917;    0,30482;1,00000;3
146,93306;30,64250;    0,30647;1,00000;3
146,89965;30,64583;    0,30811;1,00000;3
146,86641;30,64917;    0,30990;1,00000;3
146,83300;30,65250;    0,31168;1,00000;3
146,79971;30,65583;    0,31346;1,00000;3
146,76641;30,65917;    0,31532;1,00000;3
146,73306;30,66250;    0,31710;1,00000;3
146,69965;30,66583;    0,31888;1,00000;3
146,66624;30,66917;    0,32067;1,00000;3
146,63277;30,67250;    0,32245;1,00000;3
146,59947;30,67583;    0,32444;1,00000;3
146,56606;30,67917;    0,32643;1,00000;3
146,53271;30,68250;    0,32849;1,00000;3
146,49929;30,68583;    0,33049;1,00000;3
146,46600;30,68917;    0,33248;1,00000;3
146,43271;30,69250;    0,33433;1,00000;3
146,39935;30,69583;    0,33632;1,00000;3
146,36600;30,69917;    0,33817;1,00000;3
146,33271;30,70250;    0,33996;1,00000;3
146,29929;30,70583;    0,34174;1,00000;3
146,26600;30,70917;    0,34359;1,00000;3
146,23259;30,71250;    0,34544;1,00000;3
146,19929;30,71583;    0,34737;1,00000;3
146,16600;30,71917;    0,34922;1,00000;3
146,13270;30,72250;    0,35107;1,00000;3
146,09947;30,72583;    0,35293;1,00000;3
146,06623;30,72917;    0,35485;1,00000;3
146,03294;30,73250;    0,35670;1,00000;3
145,99965;30,73583;    0,35869;1,00000;3
145,96635;30,73917;    0,36061;1,00000;3
145,93312;30,74250;    0,36254;1,00000;3
145,89970;30,74583;    0,36446;1,00000;3
145,86635;30,74917;    0,36638;1,00000;3
145,83312;30,75250;    0,36837;1,00000;3
145,79988;30,75583;    0,37015;1,00000;3
145,76659;30,75917;    0,37201;1,00000;3
145,73335;30,76250;    0,37393;1,00000;3
145,70012;30,76583;    0,37592;1,00000;3
145,66676;30,76917;    0,37819;1,00000;3
145,63335;30,77250;    0,38052;1,00000;3
145,60000;30,77583;    0,38252;1,00000;3
145,56671;30,77917;    0,38451;1,00000;3
145,53329;30,78250;    0,38650;1,00000;3
145,49994;30,78583;    0,38856;1,00000;3
145,46659;30,78917;    0,39062;1,00000;3
145,43323;30,79250;    0,39261;1,00000;3
145,40000;30,79583;    0,39474;1,00000;3
145,36665;30,79917;    0,39701;1,00000;3
145,33329;30,80250;    0,39921;1,00000;3
145,30000;30,80583;    0,40106;1,00000;3
145,26653;30,80917;    0,40277;1,00000;3
145,23312;30,81250;    0,40449;1,00000;3
145,19982;30,81583;    0,40634;1,00000;3
145,16641;30,81917;    0,40819;1,00000;3
145,13306;30,82250;    0,41012;1,00000;3
145,09976;30,82583;    0,41204;1,00000;3
145,06641;30,82917;    0,41396;1,00000;3
145,03306;30,83250;    0,41602;1,00000;3
144,99971;30,83583;    0,41808;1,00000;3
144,96641;30,83917;    0,42021;1,00000;3
144,93312;30,84250;    0,42227;1,00000;3
144,89977;30,84583;    0,42433;1,00000;3
144,86653;30,84917;    0,42639;1,00000;3
144,83312;30,85250;    0,42845;1,00000;3
144,79977;30,85583;    0,43051;1,00000;3
144,76641;30,85917;    0,43243;1,00000;3
144,73312;30,86250;    0,43449;1,00000;3
144,69988;30,86583;    0,43648;1,00000;3
144,66653;30,86917;    0,43861;1,00000;3
144,63318;30,87250;    0,44060;1,00000;3
144,59988;30,87583;    0,44260;1,00000;3
144,56659;30,87917;    0,44445;1,00000;3
144,53324;30,88250;    0,44630;1,00000;3
144,49994;30,88583;    0,44808;1,00000;3
144,46665;30,88917;    0,44994;1,00000;3
144,43335;30,89250;    0,45179;1,00000;3
144,40006;30,89583;    0,45371;1,00000;3
144,36671;30,89917;    0,45563;1,00000;3
144,33341;30,90250;    0,45769;1,00000;3
144,30000;30,90583;    0,45975;1,00000;3
144,26671;30,90917;    0,46174;1,00000;3
144,23335;30,91250;    0,46374;1,00000;3
144,20012;30,91583;    0,46573;1,00000;3
144,16677;30,91917;    0,46772;1,00000;3
144,13341;30,92250;    0,46971;1,00000;3
144,10012;30,92583;    0,47177;1,00000;3
144,06677;30,92917;    0,47383;1,00000;3
144,03347;30,93250;    0,47582;1,00000;3
144,00012;30,93583;    0,47781;1,00000;3
143,96682;30,93917;    0,47994;1,00000;3
143,93353;30,94250;    0,48186;1,00000;3
143,90018;30,94583;    0,48372;1,00000;3
143,86682;30,94917;    0,48453;1,00000;3
143,83347;30,95250;    0,48625;1,00000;3
143,80012;30,95583;    0,48824;1,00000;3
143,76677;30,95917;    0,49016;1,00000;3
143,73341;30,96250;    0,49222;1,00000;3
143,69994;30,96583;    0,49428;1,00000;3
143,66659;30,96917;    0,49634;1,00000;3
143,63312;30,97250;    0,49840;1,00000;3
143,59971;30,97583;    0,50032;1,00000;3
143,56624;30,97917;    0,50211;1,00000;3
143,53288;30,98250;    0,50389;1,00000;3
143,49947;30,98583;    0,50567;1,00000;3
143,46606;30,98917;    0,50746;1,00000;3
143,43253;30,99250;    0,50938;1,00000;3
143,39912;30,99583;    0,51123;1,00000;3
143,36565;30,99917;    0,51308;1,00000;3
143,33224;31,00250;    0,51501;1,00000;3
143,29883;31,00583;    0,51672;1,00000;3
143,26536;31,00917;    0,51857;1,00000;3
143,23183;31,01250;    0,52036;1,00000;3
143,19841;31,01583;    0,52214;1,00000;3
143,16494;31,01917;    0,52392;1,00000;3
143,13159;31,02250;    0,52571;1,00000;3
143,09818;31,02583;    0,52749;1,00000;3
143,06483;31,02917;    0,52907;1,00000;3
143,03141;31,03250;    0,53078;1,00000;3
142,99800;31,03583;    0,53250;1,00000;3
142,96453;31,03917;    0,53414;1,00000;3
142,93118;31,04250;    0,53544;1,00000;3
142,89777;31,04583;    0,53695;1,00000;3
142,86447;31,04917;    0,53866;1,00000;3
142,83106;31,05250;    0,54031;1,00000;3
142,79765;31,05583;    0,54202;1,00000;3
142,76424;31,05917;    0,54387;1,00000;3
142,73082;31,06250;    0,54573;1,00000;3
142,69747;31,06583;    0,54751;1,00000;3
142,66418;31,06917;    0,54929;1,00000;3
142,63077;31,07250;    0,55087;1,00000;3
142,59741;31,07583;    0,55238;1,00000;3
142,56412;31,07917;    0,55402;1,00000;3
142,53077;31,08250;    0,55560;1,00000;3
142,49747;31,08583;    0,55690;1,00000;3
142,46418;31,08917;    0,55833;1,00000;3
142,43094;31,09250;    0,55977;1,00000;3
142,39765;31,09583;    0,56128;1,00000;3
142,36423;31,09917;    0,56279;1,00000;3
142,33094;31,10250;    0,56436;1,00000;3
142,29759;31,10583;    0,56587;1,00000;3
142,26429;31,10917;    0,56738;1,00000;3
142,23106;31,11250;    0,56888;1,00000;3
142,19776;31,11583;    0,57046;1,00000;3
142,16447;31,11917;    0,57204;1,00000;3
142,13118;31,12250;    0,57340;1,00000;3
142,09800;31,12583;    0,57470;1,00000;3
142,06476;31,12917;    0,57545;1,00000;3
142,03153;31,13250;    0,57661;1,00000;3
141,99812;31,13583;    0,57798;1,00000;3
141,96488;31,13917;    0,57942;1,00000;3
141,93159;31,14250;    0,58079;1,00000;3
141,89829;31,14583;    0,58202;1,00000;3
141,86494;31,14917;    0,58325;1,00000;3
141,83171;31,15250;    0,58448;1,00000;3
141,79847;31,15583;    0,58585;1,00000;3
141,76518;31,15917;    0,58708;1,00000;3
141,73194;31,16250;    0,58837;1,00000;3
141,69865;31,16583;    0,58967;1,00000;3
141,66535;31,16917;    0,59084;1,00000;3
141,63206;31,17250;    0,59213;1,00000;3
141,59865;31,17583;    0,59343;1,00000;3
141,56530;31,17917;    0,59480;1,00000;3
141,53183;31,18250;    0,59603;1,00000;3
141,49841;31,18583;    0,59713;1,00000;3
141,46506;31,18917;    0,59815;1,00000;3
141,43177;31,19250;    0,59924;1,00000;3
141,39841;31,19583;    0,60026;1,00000;3
141,36500;31,19917;    0,60059;1,00000;3
141,33159;31,20250;    0,60134;1,00000;3
141,29829;31,20583;    0,60257;1,00000;3
141,26488;31,20917;    0,60352;1,00000;3
141,23153;31,21250;    0,60448;1,00000;3
141,19818;31,21583;    0,60536;1,00000;3
141,16477;31,21917;    0,60618;1,00000;3
141,13135;31,22250;    0,60706;1,00000;3
141,09800;31,22583;    0,60795;1,00000;3
141,06465;31,22917;    0,60883;1,00000;3
141,03141;31,23250;    0,60978;1,00000;3
140,99806;31,23583;    0,61060;1,00000;3
140,96471;31,23917;    0,61148;1,00000;3
140,93135;31,24250;    0,61237;1,00000;3
140,89800;31,24583;    0,61332;1,00000;3
140,86459;31,24917;    0,61414;1,00000;3
140,83118;31,25250;    0,61454;1,00000;3
140,79788;31,25583;    0,61514;1,00000;3
140,76459;31,25917;    0,61582;1,00000;3
140,73118;31,26250;    0,61657;1,00000;3
140,69782;31,26583;    0,61724;1,00000;3
140,66435;31,26917;    0,61778;1,00000;3
140,63088;31,27250;    0,61832;1,00000;3
140,59759;31,27583;    0,61886;1,00000;3
140,56424;31,27917;    0,61940;1,00000;3
140,53088;31,28250;    0,61994;1,00000;3
140,49759;31,28583;    0,62054;1,00000;3
140,46418;31,28917;    0,62108;1,00000;3
140,43082;31,29250;    0,62162;1,00000;3
140,39759;31,29583;    0,62209;1,00000;3
140,36429;31,29917;    0,62263;1,00000;3
140,33094;31,30250;    0,62310;1,00000;3
140,29771;31,30583;    0,62357;1,00000;3
140,26447;31,30917;    0,62404;1,00000;3
140,23118;31,31250;    0,62451;1,00000;3
140,19788;31,31583;    0,62498;1,00000;3
140,16459;31,31917;    0,62545;1,00000;3
140,13135;31,32250;    0,62564;1,00000;3
140,09824;31,32583;    0,62569;1,00000;3
140,06506;31,32917;    0,62582;1,00000;3
140,03171;31,33250;    0,62622;1,00000;3
139,99847;31,33583;    0,62669;1,00000;3
139,96518;31,33917;    0,62716;1,00000;3
139,93188;31,34250;    0,62756;1,00000;3
139,89870;31,34583;    0,62747;1,00000;3
139,86553;31,34917;    0,62753;1,00000;3
139,83218;31,35250;    0,62751;1,00000;3
139,79888;31,35583;    0,62750;1,00000;3
139,76565;31,35917;    0,62755;1,00000;3
139,73229;31,36250;    0,62767;1,00000;3
139,69894;31,36583;    0,62766;1,00000;3
139,66565;31,36917;    0,62778;1,00000;3
139,63235;31,37250;    0,62784;1,00000;3
139,59906;31,37583;    0,62789;1,00000;3
139,56565;31,37917;    0,62801;1,00000;3
139,53229;31,38250;    0,62800;1,00000;3
139,49894;31,38583;    0,62812;1,00000;3
139,46559;31,38917;    0,62818;1,00000;3
139,43218;31,39250;    0,62823;1,00000;3
139,39876;31,39583;    0,62822;1,00000;3
139,36529;31,39917;    0,62806;1,00000;3
139,33182;31,40250;    0,62784;1,00000;3
139,29841;31,40583;    0,62769;1,00000;3
139,26512;31,40917;    0,62754;1,00000;3
139,23176;31,41250;    0,62731;1,00000;3
139,19835;31,41583;    0,62709;1,00000;3
139,16500;31,41917;    0,62666;1,00000;3
139,13170;31,42250;    0,62651;1,00000;3
139,09835;31,42583;    0,62629;1,00000;3
139,06500;31,42917;    0,62613;1,00000;3
139,03159;31,43250;    0,62598;1,00000;3
138,99829;31,43583;    0,62583;1,00000;3
138,96494;31,43917;    0,62547;1,00000;3
138,93159;31,44250;    0,62504;1,00000;3
138,89823;31,44583;    0,62468;1,00000;3
138,86494;31,44917;    0,62411;1,00000;3
138,83159;31,45250;    0,62361;1,00000;3
138,79829;31,45583;    0,62311;1,00000;3
138,76500;31,45917;    0,62247;1,00000;3
138,73170;31,46250;    0,62183;1,00000;3
138,69835;31,46583;    0,62127;1,00000;3
138,66506;31,46917;    0,62063;1,00000;3
138,63177;31,47250;    0,62006;1,00000;3
138,59847;31,47583;    0,61942;1,00000;3
138,56512;31,47917;    0,61879;1,00000;3
138,53177;31,48250;    0,61815;1,00000;3
138,49847;31,48583;    0,61751;1,00000;3
138,46524;31,48917;    0,61708;1,00000;3
138,43200;31,49250;    0,61665;1,00000;3
138,39865;31,49583;    0,61615;1,00000;3
138,36536;31,49917;    0,61565;1,00000;3
138,33206;31,50250;    0,61509;1,00000;3
138,29877;31,50583;    0,61452;1,00000;3
138,26553;31,50917;    0,61388;1,00000;3
138,23230;31,51250;    0,61324;1,00000;3
138,19906;31,51583;    0,61198;1,00000;3
138,16577;31,51917;    0,61121;1,00000;3
138,13247;31,52250;    0,61050;1,00000;3
138,09912;31,52583;    0,60973;1,00000;3
138,06582;31,52917;    0,60881;1,00000;3
138,03253;31,53250;    0,60783;1,00000;3
137,99918;31,53583;    0,60691;1,00000;3
137,96582;31,53917;    0,60607;1,00000;3
137,93241;31,54250;    0,60516;1,00000;3
137,89912;31,54583;    0,60424;1,00000;3
137,86570;31,54917;    0,60333;1,00000;3
137,83235;31,55250;    0,60227;1,00000;3
137,79900;31,55583;    0,60115;1,00000;3
137,76570;31,55917;    0,60010;1,00000;3
137,73241;31,56250;    0,59912;1,00000;3
137,69906;31,56583;    0,59813;1,00000;3
137,66576;31,56917;    0,59722;1,00000;3
137,63235;31,57250;    0,59631;1,00000;3
137,59900;31,57583;    0,59539;1,00000;3
137,56565;31,57917;    0,59441;1,00000;3
137,53229;31,58250;    0,59343;1,00000;3
137,49888;31,58583;    0,59230;1,00000;3
137,46547;31,58917;    0,59098;1,00000;3
137,43212;31,59250;    0,58992;1,00000;3
137,39876;31,59583;    0,58887;1,00000;3
137,36547;31,59917;    0,58768;1,00000;3
137,33206;31,60250;    0,58635;1,00000;3
137,29876;31,60583;    0,58502;1,00000;3
137,26547;31,60917;    0,58383;1,00000;3
137,23223;31,61250;    0,58271;1,00000;3
137,19894;31,61583;    0,58200;1,00000;3
137,16553;31,61917;    0,58088;1,00000;3
137,13223;31,62250;    0,57948;1,00000;3
137,09882;31,62583;    0,57788;1,00000;3
137,06547;31,62917;    0,57655;1,00000;3
137,03212;31,63250;    0,57543;1,00000;3
136,99882;31,63583;    0,57424;1,00000;3
136,96553;31,63917;    0,57291;1,00000;3
136,93235;31,64250;    0,57158;1,00000;3
136,89912;31,64583;    0,57025;1,00000;3
136,86577;31,64917;    0,56885;1,00000;3
136,83253;31,65250;    0,56738;1,00000;3
136,79924;31,65583;    0,56592;1,00000;3
136,76600;31,65917;    0,56459;1,00000;3
136,73265;31,66250;    0,56326;1,00000;3
136,69930;31,66583;    0,56193;1,00000;3
136,66583;31,66917;    0,56060;1,00000;3
136,63241;31,67250;    0,55927;1,00000;3
136,59918;31,67583;    0,55794;1,00000;3
136,56577;31,67917;    0,55641;1,00000;3
136,53253;31,68250;    0,55480;1,00000;3
136,49924;31,68583;    0,55320;1,00000;3
136,46588;31,68917;    0,55173;1,00000;3
136,43253;31,69250;    0,55026;1,00000;3
136,39912;31,69583;    0,54879;1,00000;3
136,36571;31,69917;    0,54746;1,00000;3
136,33230;31,70250;    0,54593;1,00000;3
136,29900;31,70583;    0,54446;1,00000;3
136,26559;31,70917;    0,54299;1,00000;3
136,23224;31,71250;    0,54152;1,00000;3
136,19888;31,71583;    0,54013;1,00000;3
136,16547;31,71917;    0,53866;1,00000;3
136,13218;31,72250;    0,53719;1,00000;3
136,09894;31,72583;    0,53572;1,00000;3
136,06565;31,72917;    0,53426;1,00000;3
136,03223;31,73250;    0,53265;1,00000;3
135,99900;31,73583;    0,53105;1,00000;3
135,96565;31,73917;    0,52944;1,00000;3
135,93241;31,74250;    0,52790;1,00000;3
135,89918;31,74583;    0,52630;1,00000;3
135,86588;31,74917;    0,52448;1,00000;3
135,83265;31,75250;    0,52260;1,00000;3
135,79941;31,75583;    0,52100;1,00000;3
135,76618;31,75917;    0,51939;1,00000;3
135,73294;31,76250;    0,51779;1,00000;3
135,69971;31,76583;    0,51604;1,00000;3
135,66641;31,76917;    0,51402;1,00000;3
135,63306;31,77250;    0,51235;1,00000;3
135,59976;31,77583;    0,51074;1,00000;3
135,56641;31,77917;    0,50934;1,00000;3
135,53306;31,78250;    0,50794;1,00000;3
135,49982;31,78583;    0,50675;1,00000;3
135,46659;31,78917;    0,50522;1,00000;3
135,43329;31,79250;    0,50347;1,00000;3
135,39994;31,79583;    0,50159;1,00000;3
135,36659;31,79917;    0,49978;1,00000;3
135,33323;31,80250;    0,49796;1,00000;3
135,29988;31,80583;    0,49629;1,00000;3
135,26665;31,80917;    0,49461;1,00000;3
135,23329;31,81250;    0,49294;1,00000;3
135,19994;31,81583;    0,49133;1,00000;3
135,16659;31,81917;    0,48952;1,00000;3
135,13329;31,82250;    0,48778;1,00000;3
135,09994;31,82583;    0,48603;1,00000;3
135,06653;31,82917;    0,48429;1,00000;3
135,03318;31,83250;    0,48261;1,00000;3
134,99982;31,83583;    0,48087;1,00000;3
134,96647;31,83917;    0,47919;1,00000;3
134,93306;31,84250;    0,47745;1,00000;3
134,89965;31,84583;    0,47571;1,00000;3
134,86624;31,84917;    0,47396;1,00000;3
134,83294;31,85250;    0,47229;1,00000;3
134,79953;31,85583;    0,47061;1,00000;3
134,76612;31,85917;    0,46894;1,00000;3
134,73276;31,86250;    0,46733;1,00000;3
134,69929;31,86583;    0,46559;1,00000;3
134,66588;31,86917;    0,46371;1,00000;3
134,63241;31,87250;    0,46182;1,00000;3
134,59894;31,87583;    0,46015;1,00000;3
134,56547;31,87917;    0,45840;1,00000;3
134,53206;31,88250;    0,45659;1,00000;3
134,49871;31,88583;    0,45478;1,00000;3
134,46541;31,88917;    0,45276;1,00000;3
134,43206;31,89250;    0,45080;1,00000;3
134,39871;31,89583;    0,44906;1,00000;3
134,36529;31,89917;    0,44739;1,00000;3
134,33188;31,90250;    0,44571;1,00000;3
134,29847;31,90583;    0,44390;1,00000;3
134,26500;31,90917;    0,44215;1,00000;3
134,23159;31,91250;    0,44041;1,00000;3
134,19818;31,91583;    0,43874;1,00000;3
134,16477;31,91917;    0,43706;1,00000;3
134,13141;31,92250;    0,43539;1,00000;3
134,09806;31,92583;    0,43357;1,00000;3
134,06482;31,92917;    0,43183;1,00000;3
134,03159;31,93250;    0,43008;1,00000;3
133,99818;31,93583;    0,42834;1,00000;3
133,96482;31,93917;    0,42666;1,00000;3
133,93153;31,94250;    0,42499;1,00000;3
133,89818;31,94583;    0,42338;1,00000;3
133,86483;31,94917;    0,42171;1,00000;3
133,83147;31,95250;    0,42003;1,00000;3
133,79824;31,95583;    0,41843;1,00000;3
133,76500;31,95917;    0,41662;1,00000;3
133,73171;31,96250;    0,41480;1,00000;3
133,69841;31,96583;    0,41299;1,00000;3
133,66506;31,96917;    0,41125;1,00000;3
133,63171;31,97250;    0,40964;1,00000;3
133,59835;31,97583;    0,40803;1,00000;3
133,56500;31,97917;    0,40622;1,00000;3
133,53165;31,98250;    0,40455;1,00000;3
133,49824;31,98583;    0,40287;1,00000;3
133,46477;31,98917;    0,40120;1,00000;3
133,43141;31,99250;    0,39945;1,00000;3
133,39812;31,99583;    0,39771;1,00000;3
133,36483;31,99917;    0,39596;1,00000;3
133,33147;32,00250;    0,39422;1,00000;3
133,29812;32,00583;    0,39248;1,00000;3
133,26477;32,00917;    0,39087;1,00000;3
133,23135;32,01250;    0,38926;1,00000;3
133,19794;32,01583;    0,38759;1,00000;3
133,16459;32,01917;    0,38591;1,00000;3
133,13118;32,02250;    0,38424;1,00000;3
133,09788;32,02583;    0,38263;1,00000;3
133,06465;32,02917;    0,38089;1,00000;3
133,03135;32,03250;    0,37921;1,00000;3
132,99794;32,03583;    0,37747;1,00000;3
132,96459;32,03917;    0,37566;1,00000;3
132,93123;32,04250;    0,37398;1,00000;3
132,89794;32,04583;    0,37238;1,00000;3
132,86459;32,04917;    0,37070;1,00000;3
132,83112;32,05250;    0,36917;1,00000;3
132,79776;32,05583;    0,36756;1,00000;3
132,76441;32,05917;    0,36602;1,00000;3
132,73112;32,06250;    0,36428;1,00000;3
132,69770;32,06583;    0,36260;1,00000;3
132,66441;32,06917;    0,36100;1,00000;3
132,63106;32,07250;    0,35925;1,00000;3
132,59770;32,07583;    0,35758;1,00000;3
132,56435;32,07917;    0,35597;1,00000;3
132,53100;32,08250;    0,35444;1,00000;3
132,49753;32,08583;    0,35297;1,00000;3
132,46412;32,08917;    0,35157;1,00000;3
132,43082;32,09250;    0,35003;1,00000;3
132,39735;32,09583;    0,34843;1,00000;3
132,36400;32,09917;    0,34689;1,00000;3
132,33059;32,10250;    0,34522;1,00000;3
132,29723;32,10583;    0,34347;1,00000;3
132,26394;32,10917;    0,34180;1,00000;3
132,23047;32,11250;    0,34012;1,00000;3
132,19706;32,11583;    0,33852;1,00000;3
132,16359;32,11917;    0,33698;1,00000;3
132,13023;32,12250;    0,33586;1,00000;3
132,09676;32,12583;    0,33446;1,00000;3
132,06341;32,12917;    0,33299;1,00000;3
132,03006;32,13250;    0,33160;1,00000;3
131,99677;32,13583;    0,33006;1,00000;3
131,96341;32,13917;    0,32845;1,00000;3
131,93006;32,14250;    0,32685;1,00000;3
131,89665;32,14583;    0,32531;1,00000;3
131,86329;32,14917;    0,32384;1,00000;3
131,83018;32,15250;    0,32245;1,00000;3
131,79688;32,15583;    0,32091;1,00000;3
131,76353;32,15917;    0,31937;1,00000;3
131,73024;32,16250;    0,31784;1,00000;3
131,69688;32,16583;    0,31630;1,00000;3
131,66359;32,16917;    0,31476;1,00000;3
131,63024;32,17250;    0,31330;1,00000;3
131,59700;32,17583;    0,31183;1,00000;3
131,56377;32,17917;    0,31029;1,00000;3
131,53047;32,18250;    0,30876;1,00000;3
131,49712;32,18583;    0,30729;1,00000;3
131,46377;32,18917;    0,30589;1,00000;3
131,43041;32,19250;    0,30498;1,00000;3
131,39706;32,19583;    0,30399;1,00000;3
131,36383;32,19917;    0,30259;1,00000;3
131,33053;32,20250;    0,30113;1,00000;3
131,29718;32,20583;    0,29959;1,00000;3
131,26371;32,20917;    0,29792;1,00000;3
131,23030;32,21250;    0,29638;1,00000;3
131,19700;32,21583;    0,29526;1,00000;3
131,16365;32,21917;    0,29414;1,00000;3
131,13035;32,22250;    0,29295;1,00000;3
131,09706;32,22583;    0,29169;1,00000;3
131,06382;32,22917;    0,29036;1,00000;3
131,03047;32,23250;    0,28910;1,00000;3
130,99706;32,23583;    0,28777;1,00000;3
130,96371;32,23917;    0,28637;1,00000;3
130,93041;32,24250;    0,28497;1,00000;3
130,89712;32,24583;    0,28357;1,00000;3
130,86377;32,24917;    0,28218;1,00000;3
130,83041;32,25250;    0,28092;1,00000;3
130,79700;32,25583;    0,27959;1,00000;3
130,76376;32,25917;    0,27826;1,00000;3
130,73047;32,26250;    0,27686;1,00000;3
130,69718;32,26583;    0,27546;1,00000;3
130,66388;32,26917;    0,27406;1,00000;3
130,63059;32,27250;    0,27273;1,00000;3
130,59729;32,27583;    0,27140;1,00000;3
130,56400;32,27917;    0,27028;1,00000;3
130,53065;32,28250;    0,26909;1,00000;3
130,49724;32,28583;    0,26790;1,00000;3
130,46394;32,28917;    0,26657;1,00000;3
130,43077;32,29250;    0,26524;1,00000;3
130,39747;32,29583;    0,26398;1,00000;3
130,36418;32,29917;    0,26272;1,00000;3
130,33082;32,30250;    0,26146;1,00000;3
130,29759;32,30583;    0,26027;1,00000;3
130,26441;32,30917;    0,25901;1,00000;3
130,23118;32,31250;    0,25782;1,00000;3
130,19788;32,31583;    0,25670;1,00000;3
130,16459;32,31917;    0,25551;1,00000;3
130,13129;32,32250;    0,25446;1,00000;3
130,09800;32,32583;    0,25354;1,00000;3
130,06471;32,32917;    0,25256;1,00000;3
130,03135;32,33250;    0,25144;1,00000;3
129,99794;32,33583;    0,25032;1,00000;3
129,96465;32,33917;    0,24906;1,00000;3
129,93153;32,34250;    0,24766;1,00000;3
129,89824;32,34583;    0,24626;1,00000;3
129,86488;32,34917;    0,24493;1,00000;3
129,83165;32,35250;    0,24353;1,00000;3
129,79829;32,35583;    0,24228;1,00000;3
129,76500;32,35917;    0,24102;1,00000;3
129,73171;32,36250;    0,23982;1,00000;3
129,69835;32,36583;    0,23884;1,00000;3
129,66506;32,36917;    0,23807;1,00000;3
129,63171;32,37250;    0,23715;1,00000;3
129,59847;32,37583;    0,23617;1,00000;3
129,56512;32,37917;    0,23526;1,00000;3
129,53177;32,38250;    0,23413;1,00000;3
129,49841;32,38583;    0,23308;1,00000;3
129,46518;32,38917;    0,23196;1,00000;3
129,43188;32,39250;    0,23084;1,00000;3
129,39847;32,39583;    0,22979;1,00000;3
129,36494;32,39917;    0,22873;1,00000;3
129,33153;32,40250;    0,22768;1,00000;3
129,29812;32,40583;    0,22656;1,00000;3
129,26471;32,40917;    0,22551;1,00000;3
129,23130;32,41250;    0,22439;1,00000;3
129,19788;32,41583;    0,22320;1,00000;3
129,16441;32,41917;    0,22207;1,00000;3
129,13106;32,42250;    0,22095;1,00000;3
129,09765;32,42583;    0,21976;1,00000;3
129,06424;32,42917;    0,21857;1,00000;3
129,03071;32,43250;    0,21773;1,00000;3
128,99729;32,43583;    0,21688;1,00000;3
128,96388;32,43917;    0,21603;1,00000;3
128,93053;32,44250;    0,21505;1,00000;3
128,89712;32,44583;    0,21393;1,00000;3
128,86376;32,44917;    0,21288;1,00000;3
128,83047;32,45250;    0,21155;1,00000;3
128,79718;32,45583;    0,21070;1,00000;3
128,76382;32,45917;    0,20972;1,00000;3
128,73053;32,46250;    0,20895;1,00000;3
128,69717;32,46583;    0,20796;1,00000;3
128,66394;32,46917;    0,20691;1,00000;3
128,63070;32,47250;    0,20600;1,00000;3
128,59747;32,47583;    0,20501;1,00000;3
128,56406;32,47917;    0,20403;1,00000;3
128,53076;32,48250;    0,20305;1,00000;3
128,49747;32,48583;    0,20213;1,00000;3
128,46418;32,48917;    0,20122;1,00000;3
128,43094;32,49250;    0,20017;1,00000;3
128,39765;32,49583;    0,19918;1,00000;3
128,36435;32,49917;    0,19855;1,00000;3
128,33112;32,50250;    0,19763;1,00000;3
128,29788;32,50583;    0,19658;1,00000;3
128,26459;32,50917;    0,19553;1,00000;3
128,23129;32,51250;    0,19461;1,00000;3
128,19800;32,51583;    0,19384;1,00000;3
128,16459;32,51917;    0,19341;1,00000;3
128,13124;32,52250;    0,19270;1,00000;3
128,09794;32,52583;    0,19193;1,00000;3
128,06459;32,52917;    0,19122;1,00000;3
128,03124;32,53250;    0,19051;1,00000;3
127,99800;32,53583;    0,18953;1,00000;3
127,96476;32,53917;    0,18848;1,00000;3
127,93159;32,54250;    0,18756;1,00000;3
127,89835;32,54583;    0,18672;1,00000;3
127,86506;32,54917;    0,18580;1,00000;3
127,83182;32,55250;    0,18496;1,00000;3
127,79853;32,55583;    0,18398;1,00000;3
127,76518;32,55917;    0,18313;1,00000;3
127,73182;32,56250;    0,18222;1,00000;3
127,69853;32,56583;    0,18137;1,00000;3
127,66512;32,56917;    0,18060;1,00000;3
127,63182;32,57250;    0,17982;1,00000;3
127,59859;32,57583;    0,17911;1,00000;3
127,56529;32,57917;    0,17841;1,00000;3
127,53194;32,58250;    0,17756;1,00000;3
127,49865;32,58583;    0,17665;1,00000;3
127,46535;32,58917;    0,17580;1,00000;3
127,43200;32,59250;    0,17510;1,00000;3
127,39859;32,59583;    0,17432;1,00000;3
127,36518;32,59917;    0,17348;1,00000;3
127,33182;32,60250;    0,17249;1,00000;3
127,29841;32,60583;    0,17165;1,00000;3
127,26512;32,60917;    0,17087;1,00000;3
127,23176;32,61250;    0,17017;1,00000;3
127,19841;32,61583;    0,16939;1,00000;3
127,16512;32,61917;    0,16869;1,00000;3
127,13176;32,62250;    0,16826;1,00000;3
127,09847;32,62583;    0,16796;1,00000;3
127,06512;32,62917;    0,16740;1,00000;3
127,03182;32,63250;    0,16662;1,00000;3
126,99841;32,63583;    0,16578;1,00000;3
126,96500;32,63917;    0,16500;1,00000;3
126,93165;32,64250;    0,16422;1,00000;3
126,89824;32,64583;    0,16331;1,00000;3
126,86488;32,64917;    0,16219;1,00000;3
126,83147;32,65250;    0,16100;1,00000;3
126,79806;32,65583;    0,16001;1,00000;3
126,76471;32,65917;    0,15931;1,00000;3
126,73141;32,66250;    0,15860;1,00000;3
126,69800;32,66583;    0,15783;1,00000;3
126,66465;32,66917;    0,15712;1,00000;3
126,63124;32,67250;    0,15697;1,00000;3
126,59782;32,67583;    0,15647;1,00000;3
126,56453;32,67917;    0,15576;1,00000;3
126,53124;32,68250;    0,15498;1,00000;3
126,49800;32,68583;    0,15421;1,00000;3
126,46465;32,68917;    0,15350;1,00000;3
126,43141;32,69250;    0,15293;1,00000;3
126,39812;32,69583;    0,15237;1,00000;3
126,36494;32,69917;    0,15180;1,00000;3
126,33165;32,70250;    0,15116;1,00000;3
126,29841;32,70583;    0,15045;1,00000;3
126,26518;32,70917;    0,14982;1,00000;3
126,23188;32,71250;    0,14918;1,00000;3
126,19865;32,71583;    0,14861;1,00000;3
126,16529;32,71917;    0,14804;1,00000;3
126,13194;32,72250;    0,14741;1,00000;3
126,09871;32,72583;    0,14684;1,00000;3
126,06541;32,72917;    0,14620;1,00000;3
126,03212;32,73250;    0,14556;1,00000;3
125,99876;32,73583;    0,14493;1,00000;3
125,96547;32,73917;    0,14429;1,00000;3
125,93212;32,74250;    0,14365;1,00000;3
125,89882;32,74583;    0,14301;1,00000;3
125,86559;32,74917;    0,14238;1,00000;3
125,83235;32,75250;    0,14174;1,00000;3
125,79888;32,75583;    0,14103;1,00000;3
125,76559;32,75917;    0,14040;1,00000;3
125,73218;32,76250;    0,13976;1,00000;3
125,69882;32,76583;    0,13912;1,00000;3
125,66559;32,76917;    0,13855;1,00000;3
125,63223;32,77250;    0,13798;1,00000;3
125,59900;32,77583;    0,13742;1,00000;3
125,56576;32,77917;    0,13671;1,00000;3
125,53241;32,78250;    0,13607;1,00000;3
125,49918;32,78583;    0,13550;1,00000;3
125,46588;32,78917;    0,13487;1,00000;3
125,43265;32,79250;    0,13430;1,00000;3
125,39935;32,79583;    0,13373;1,00000;3
125,36606;32,79917;    0,13316;1,00000;3
125,33276;32,80250;    0,13266;1,00000;3
125,29947;32,80583;    0,13216;1,00000;3
125,26623;32,80917;    0,13160;1,00000;3
125,23300;32,81250;    0,13103;1,00000;3
125,19976;32,81583;    0,13039;1,00000;3
125,16659;32,81917;    0,12975;1,00000;3
125,13341;32,82250;    0,12925;1,00000;3
125,10012;32,82583;    0,12869;1,00000;3
125,06676;32,82917;    0,12812;1,00000;3
125,03347;32,83250;    0,12748;1,00000;3
125,00018;32,83583;    0,12691;1,00000;3
124,96688;32,83917;    0,12683;1,00000;3
124,93353;32,84250;    0,12661;1,00000;3
124,90024;32,84583;    0,12604;1,00000;3
124,86688;32,84917;    0,12540;1,00000;3
124,83353;32,85250;    0,12483;1,00000;3
124,80018;32,85583;    0,12440;1,00000;3
124,76676;32,85917;    0,12390;1,00000;3
124,73335;32,86250;    0,12334;1,00000;3
124,69994;32,86583;    0,12277;1,00000;3
124,66653;32,86917;    0,12220;1,00000;3
124,63318;32,87250;    0,12163;1,00000;3
124,59982;32,87583;    0,12106;1,00000;3
124,56641;32,87917;    0,12043;1,00000;3
124,53306;32,88250;    0,11986;1,00000;3
124,49971;32,88583;    0,11936;1,00000;3
124,46635;32,88917;    0,11886;1,00000;3
124,43300;32,89250;    0,11836;1,00000;3
124,39965;32,89583;    0,11779;1,00000;3
124,36629;32,89917;    0,11729;1,00000;3
124,33300;32,90250;    0,11680;1,00000;3
124,29965;32,90583;    0,11616;1,00000;3
124,26635;32,90917;    0,11545;1,00000;3
124,23306;32,91250;    0,11488;1,00000;3
124,19971;32,91583;    0,11438;1,00000;3
124,16629;32,91917;    0,11382;1,00000;3
124,13294;32,92250;    0,11325;1,00000;3
124,09959;32,92583;    0,11261;1,00000;3
124,06618;32,92917;    0,11211;1,00000;3
124,03265;32,93250;    0,11175;1,00000;3
123,99918;32,93583;    0,11146;1,00000;3
123,96565;32,93917;    0,11110;1,00000;3
123,93224;32,94250;    0,11067;1,00000;3
123,89882;32,94583;    0,11017;1,00000;3
123,86541;32,94917;    0,10974;1,00000;3
123,83200;32,95250;    0,10938;1,00000;3
123,79859;32,95583;    0,10909;1,00000;3
123,76512;32,95917;    0,10873;1,00000;3
123,73171;32,96250;    0,10830;1,00000;3
123,69829;32,96583;    0,10787;1,00000;3
123,66477;32,96917;    0,10751;1,00000;3
123,63141;32,97250;    0,10708;1,00000;3
123,59800;32,97583;    0,10665;1,00000;3
123,56465;32,97917;    0,10615;1,00000;3
123,53124;32,98250;    0,10572;1,00000;3
123,49782;32,98583;    0,10522;1,00000;3
123,46459;32,98917;    0,10479;1,00000;3
123,43129;32,99250;    0,10429;1,00000;3
123,39806;32,99583;    0,10379;1,00000;3
123,36482;32,99917;    0,10322;1,00000;3
123,33147;33,00250;    0,10265;1,00000;3
123,29818;33,00583;    0,10216;1,00000;3
123,26482;33,00917;    0,10166;1,00000;3
123,23159;33,01250;    0,10143;1,00000;3
123,19829;33,01583;    0,10135;1,00000;3
123,16500;33,01917;    0,10113;1,00000;3
123,13165;33,02250;    0,10097;1,00000;3
123,09841;33,02583;    0,10075;1,00000;3
123,06506;33,02917;    0,10053;1,00000;3
123,03188;33,03250;    0,10017;1,00000;3
122,99859;33,03583;9,9878e-002;1,00000;3
122,96535;33,03917;9,9587e-002;1,00000;3
122,93212;33,04250;9,9364e-002;1,00000;3
122,89882;33,04583;9,8935e-002;1,00000;3
122,86559;33,04917;9,8574e-002;1,00000;3
122,83229;33,05250;9,8144e-002;1,00000;3
122,79906;33,05583;9,7714e-002;1,00000;3
122,76576;33,05917;9,7285e-002;1,00000;3
122,73247;33,06250;9,6855e-002;1,00000;3
122,69924;33,06583;9,6494e-002;1,00000;3
122,66594;33,06917;9,6064e-002;1,00000;3
122,63265;33,07250;9,5704e-002;1,00000;3
122,59929;33,07583;9,5343e-002;1,00000;3
122,56606;33,07917;9,4982e-002;1,00000;3
122,53276;33,08250;9,4553e-002;1,00000;3
122,49947;33,08583;9,4053e-002;1,00000;3
122,46612;33,08917;9,3555e-002;1,00000;3
122,43282;33,09250;9,2917e-002;1,00000;3
122,39953;33,09583;9,2695e-002;1,00000;3
122,36618;33,09917;9,2473e-002;1,00000;3
122,33282;33,10250;9,2112e-002;1,00000;3
122,29941;33,10583;9,1821e-002;1,00000;3
122,26606;33,10917;9,1460e-002;1,00000;3
122,23265;33,11250;9,1168e-002;1,00000;3
122,19935;33,11583;9,0877e-002;1,00000;3
122,16606;33,11917;9,0517e-002;1,00000;3
122,13265;33,12250;9,0156e-002;1,00000;3
122,09918;33,12583;9,0002e-002;1,00000;3
122,06582;33,12917;8,9988e-002;1,00000;3
122,03247;33,13250;8,9696e-002;1,00000;3
121,99912;33,13583;8,9266e-002;1,00000;3
121,96577;33,13917;8,8698e-002;1,00000;3
121,93247;33,14250;8,8268e-002;1,00000;3
121,89918;33,14583;8,7631e-002;1,00000;3
121,86577;33,14917;8,7062e-002;1,00000;3
121,83241;33,15250;8,6563e-002;1,00000;3
121,79906;33,15583;8,6065e-002;1,00000;3
121,76571;33,15917;8,5635e-002;1,00000;3
121,73235;33,16250;8,5205e-002;1,00000;3
121,69900;33,16583;8,4844e-002;1,00000;3
121,66559;33,16917;8,4553e-002;1,00000;3
121,63218;33,17250;8,4262e-002;1,00000;3
121,59882;33,17583;8,3901e-002;1,00000;3
121,56553;33,17917;8,3540e-002;1,00000;3
121,53229;33,18250;8,3318e-002;1,00000;3
121,49900;33,18583;8,3372e-002;1,00000;3
121,46571;33,18917;8,3357e-002;1,00000;3
121,43235;33,19250;8,3342e-002;1,00000;3
121,39906;33,19583;8,3051e-002;1,00000;3
121,36576;33,19917;8,2690e-002;1,00000;3
121,33241;33,20250;8,2330e-002;1,00000;3
121,29900;33,20583;8,1969e-002;1,00000;3
121,26565;33,20917;8,1609e-002;1,00000;3
121,23229;33,21250;8,1386e-002;1,00000;3
121,19888;33,21583;8,1164e-002;1,00000;3
121,16565;33,21917;8,0942e-002;1,00000;3
121,13229;33,22250;8,0581e-002;1,00000;3
121,09900;33,22583;8,0359e-002;1,00000;3
121,06559;33,22917;8,0136e-002;1,00000;3
121,03224;33,23250;7,9982e-002;1,00000;3
120,99894;33,23583;7,9622e-002;1,00000;3
120,96565;33,23917;7,9331e-002;1,00000;3
120,93229;33,24250;7,9108e-002;1,00000;3
120,89900;33,24583;7,8887e-002;1,00000;3
120,86571;33,24917;7,8594e-002;1,00000;3
120,83241;33,25250;7,8303e-002;1,00000;3
120,79906;33,25583;7,8011e-002;1,00000;3
120,76576;33,25917;7,7651e-002;1,00000;3
120,73253;33,26250;7,7291e-002;1,00000;3
120,69923;33,26583;7,6999e-002;1,00000;3
120,66600;33,26917;7,6777e-002;1,00000;3
120,63282;33,27250;7,6555e-002;1,00000;3
120,59953;33,27583;7,6332e-002;1,00000;3
120,56629;33,27917;7,6179e-002;1,00000;3
120,53306;33,28250;7,6095e-002;1,00000;3
120,49988;33,28583;7,5942e-002;1,00000;3
120,46653;33,28917;7,5650e-002;1,00000;3
120,43318;33,29250;7,5359e-002;1,00000;3
120,39982;33,29583;7,4999e-002;1,00000;3
120,36659;33,29917;7,4638e-002;1,00000;3
120,33329;33,30250;7,4347e-002;1,00000;3
120,29994;33,30583;7,4055e-002;1,00000;3
120,26659;33,30917;7,3764e-002;1,00000;3
120,23324;33,31250;7,3403e-002;1,00000;3
120,19988;33,31583;7,3042e-002;1,00000;3
120,16659;33,31917;7,2750e-002;1,00000;3
120,13329;33,32250;7,2459e-002;1,00000;3
120,09994;33,32583;7,2168e-002;1,00000;3
120,06659;33,32917;7,1876e-002;1,00000;3
120,03324;33,33250;7,1654e-002;1,00000;3
119,99982;33,33583;7,1570e-002;1,00000;3
119,96647;33,33917;7,1486e-002;1,00000;3
119,93312;33,34250;7,1333e-002;1,00000;3
119,89982;33,34583;7,1180e-002;1,00000;3
119,86653;33,34917;7,1096e-002;1,00000;3
119,83324;33,35250;7,1012e-002;1,00000;3
119,79976;33,35583;7,0720e-002;1,00000;3
119,76635;33,35917;7,0498e-002;1,00000;3
119,73306;33,36250;7,0275e-002;1,00000;3
119,69971;33,36583;7,0053e-002;1,00000;3
119,66629;33,36917;6,9900e-002;1,00000;3
119,63300;33,37250;6,9678e-002;1,00000;3
119,59959;33,37583;6,9525e-002;1,00000;3
119,56624;33,37917;6,9302e-002;1,00000;3
119,53288;33,38250;6,9079e-002;1,00000;3
119,49953;33,38583;6,8788e-002;1,00000;3
119,46618;33,38917;6,8566e-002;1,00000;3
119,43294;33,39250;6,8413e-002;1,00000;3
119,39965;33,39583;6,8190e-002;1,00000;3
119,36641;33,39917;6,7969e-002;1,00000;3
119,33306;33,40250;6,7815e-002;1,00000;3
119,29976;33,40583;6,7662e-002;1,00000;3
119,26641;33,40917;6,7509e-002;1,00000;3
119,23318;33,41250;6,7287e-002;1,00000;3
119,19994;33,41583;6,7341e-002;1,00000;3
119,16653;33,41917;6,7396e-002;1,00000;3
119,13318;33,42250;6,7312e-002;1,00000;3
119,10000;33,42583;6,7228e-002;1,00000;3
119,06665;33,42917;6,7143e-002;1,00000;3
119,03341;33,43250;6,7060e-002;1,00000;3
119,00012;33,43583;6,6906e-002;1,00000;3
118,96682;33,43917;6,6753e-002;1,00000;3
118,93347;33,44250;6,6324e-002;1,00000;3
118,90018;33,44583;6,6239e-002;1,00000;3
118,86676;33,44917;6,6086e-002;1,00000;3
118,83335;33,45250;6,5864e-002;1,00000;3
118,79994;33,45583;6,5642e-002;1,00000;3
118,76665;33,45917;6,5558e-002;1,00000;3
118,73324;33,46250;6,5543e-002;1,00000;3
118,69988;33,46583;6,5459e-002;1,00000;3
118,66653;33,46917;6,5375e-002;1,00000;3
118,63312;33,47250;6,5084e-002;1,00000;3
118,59971;33,47583;6,4791e-002;1,00000;3
118,56629;33,47917;6,4362e-002;1,00000;3
118,53282;33,48250;6,3863e-002;1,00000;3
118,49941;33,48583;6,3848e-002;1,00000;3
118,46594;33,48917;6,3764e-002;1,00000;3
118,43247;33,49250;6,3611e-002;1,00000;3
118,39906;33,49583;6,3527e-002;1,00000;3
118,36565;33,49917;6,3235e-002;1,00000;3
118,33218;33,50250;6,2528e-002;1,00000;3
118,29882;33,50583;6,2513e-002;1,00000;3
118,26547;33,50917;6,2568e-002;1,00000;3
118,23212;33,51250;6,2553e-002;1,00000;3
118,19871;33,51583;6,2469e-002;1,00000;3
118,16541;33,51917;6,2039e-002;1,00000;3
118,13200;33,52250;6,1748e-002;1,00000;3
118,09859;33,52583;6,1595e-002;1,00000;3
118,06529;33,52917;6,1511e-002;1,00000;3
118,03212;33,53250;6,1358e-002;1,00000;3
117,99894;33,53583;6,1274e-002;1,00000;3
117,96565;33,53917;6,1190e-002;1,00000;3
117,93235;33,54250;6,1175e-002;1,00000;3
117,89912;33,54583;6,1161e-002;1,00000;3
117,86582;33,54917;6,1007e-002;1,00000;3
117,83253;33,55250;6,0854e-002;1,00000;3
117,79929;33,55583;6,0909e-002;1,00000;3
117,76600;33,55917;6,0825e-002;1,00000;3
117,73265;33,56250;6,0603e-002;1,00000;3
117,69929;33,56583;6,0449e-002;1,00000;3
117,66594;33,56917;6,0088e-002;1,00000;3
117,63253;33,57250;6,0005e-002;1,00000;3
117,59912;33,57583;5,9920e-002;1,00000;3
117,56582;33,57917;5,9837e-002;1,00000;3
117,53253;33,58250;5,9822e-002;1,00000;3
117,49906;33,58583;5,9807e-002;1,00000;3
117,46565;33,58917;5,9722e-002;1,00000;3
117,43218;33,59250;5,9708e-002;1,00000;3
117,39882;33,59583;5,9624e-002;1,00000;3
117,36547;33,59917;5,9539e-002;1,00000;3
117,33206;33,60250;5,9525e-002;1,00000;3
117,29871;33,60583;5,9372e-002;1,00000;3
117,26535;33,60917;5,9288e-002;1,00000;3
117,23188;33,61250;5,9204e-002;1,00000;3
117,19853;33,61583;5,9120e-002;1,00000;3
117,16518;33,61917;5,9105e-002;1,00000;3
117,13182;33,62250;5,9090e-002;1,00000;3
117,09841;33,62583;5,9007e-002;1,00000;3
117,06512;33,62917;5,8853e-002;1,00000;3
117,03171;33,63250;5,8769e-002;1,00000;3
116,99835;33,63583;5,8755e-002;1,00000;3
116,96494;33,63917;5,8808e-002;1,00000;3
116,93165;33,64250;5,8794e-002;1,00000;3
116,89824;33,64583;5,8710e-002;1,00000;3

