#EXPORTTYPE:DATA SINGLE
#FILE:AP52DE55 PURE 5K.ngb-sd7
#FORMAT:NETZSCH5
#FTYPE:ANSI
#IDENTITY:AP52DE55 PURE 5K/min
#DECIMAL:COMMA
#SEPARATOR:SEMICOLON
#MTYPE:DSC
#INSTRUMENT:NETZSCH DSC 204F1 Phoenix
#PROJECT:Gutkowski praca in¿
#DATE/TIME:08.01.2016 09:51
#CORR. FILE:
#TEMPCAL:wlasna_temp_24_09_2014.ngb-td7
#SENSITIVITY:wlasna_sens_24_09_2014.ngb-ed7
#LABORATORY:206
#OPERATOR:MIC
#REMARK:
#SAMPLE:AP52DE55 PURE 5K/min
#SAMPLE MASS /mg:11,54
#MATERIAL:PU
#REFERENCE:correction
#REFERENCE MASS /mg:0
#TYPE OF CRUCIBLE:Pan Al, closed
#SAMPLE CRUCIBLE MASS /mg:0
#REFERENCE CRUCIBLE MASS /mg:39,35
#M.RANGE /µV:5000
#TAU-R:---
#CORR. CODE:000
#EXO:+1
#RANGE:25°C....250°C/-5,0....15,0K/min
#SEGMENT:S3/3
#SEG. 1:25°C/15,0(K/min)/250°C
#SEG. 2:250°C/00:10/250°C
#SEG. 3:250°C/5,0(K/min)/60°C

##Temp./°C;Time/min;DSC/(mW/mg);Sensit./(uV/mW);Segment
169,80035;41,04083;4,7540e-002;3,65547;3
169,77535;41,04583;4,7555e-002;3,65550;3
169,75035;41,05083;4,7515e-002;3,65553;3
169,72547;41,05583;4,7512e-002;3,65556;3
169,70047;41,06083;4,7563e-002;3,65558;3
169,67559;41,06583;4,7578e-002;3,65561;3
169,65065;41,07083;4,7592e-002;3,65564;3
169,62565;41,07583;4,7607e-002;3,65567;3
169,60065;41,08083;4,7640e-002;3,65569;3
169,57565;41,08583;4,7673e-002;3,65572;3
169,55065;41,09083;4,7670e-002;3,65575;3
169,52565;41,09583;4,7685e-002;3,65578;3
169,50070;41,10083;4,7699e-002;3,65580;3
169,47576;41,10583;4,7733e-002;3,65583;3
169,45082;41,11083;4,7729e-002;3,65586;3
169,42582;41,11583;4,7690e-002;3,65589;3
169,40082;41,12083;4,7687e-002;3,65591;3
169,37582;41,12583;4,7701e-002;3,65594;3
169,35076;41,13083;4,7698e-002;3,65597;3
169,32565;41,13583;4,7659e-002;3,65600;3
169,30053;41,14083;4,7601e-002;3,65602;3
169,27553;41,14583;4,7598e-002;3,65605;3
169,25041;41,15083;4,7649e-002;3,65608;3
169,22541;41,15583;4,7664e-002;3,65611;3
169,20035;41,16083;4,7660e-002;3,65613;3
169,17529;41,16583;4,7675e-002;3,65616;3
169,15018;41,17083;4,7654e-002;3,65619;3
169,12512;41,17583;4,7669e-002;3,65621;3
169,10006;41,18083;4,7665e-002;3,65624;3
169,07500;41,18583;4,7716e-002;3,65627;3
169,04994;41,19083;4,7731e-002;3,65630;3
169,02477;41,19583;4,7746e-002;3,65632;3
168,99977;41,20083;4,7779e-002;3,65635;3
168,97477;41,20583;4,7812e-002;3,65638;3
168,94965;41,21083;4,7808e-002;3,65641;3
168,92465;41,21583;4,7841e-002;3,65643;3
168,89959;41,22083;4,7910e-002;3,65646;3
168,87453;41,22583;4,7980e-002;3,65649;3
168,84947;41,23083;4,7958e-002;3,65651;3
168,82441;41,23583;4,7937e-002;3,65654;3
168,79941;41,24083;4,7897e-002;3,65657;3
168,77429;41,24583;4,7876e-002;3,65660;3
168,74924;41,25083;4,7873e-002;3,65662;3
168,72418;41,25583;4,7888e-002;3,65665;3
168,69912;41,26083;4,7920e-002;3,65668;3
168,67412;41,26583;4,7863e-002;3,65670;3
168,64894;41,27083;4,7878e-002;3,65673;3
168,62382;41,27583;4,7911e-002;3,65676;3
168,59876;41,28083;4,7980e-002;3,65679;3
168,57365;41,28583;4,8139e-002;3,65681;3
168,54859;41,29083;4,8226e-002;3,65684;3
168,52365;41,29583;4,8187e-002;3,65687;3
168,49865;41,30083;4,8075e-002;3,65689;3
168,47376;41,30583;4,8090e-002;3,65692;3
168,44876;41,31083;4,8105e-002;3,65695;3
168,42376;41,31583;4,8120e-002;3,65697;3
168,39876;41,32083;4,8080e-002;3,65700;3
168,37370;41,32583;4,8095e-002;3,65703;3
168,34876;41,33083;4,8110e-002;3,65705;3
168,32382;41,33583;4,8107e-002;3,65708;3
168,29894;41,34083;4,8140e-002;3,65711;3
168,27400;41,34583;4,8173e-002;3,65713;3
168,24912;41,35083;4,8187e-002;3,65716;3
168,22423;41,35583;4,8184e-002;3,65719;3
168,19935;41,36083;4,8181e-002;3,65722;3
168,17447;41,36583;4,8214e-002;3,65724;3
168,14959;41,37083;4,8229e-002;3,65727;3
168,12465;41,37583;4,8225e-002;3,65729;3
168,09965;41,38083;4,8258e-002;3,65732;3
168,07465;41,38583;4,8382e-002;3,65735;3
168,04971;41,39083;4,8415e-002;3,65737;3
168,02482;41,39583;4,8393e-002;3,65740;3
167,99994;41,40083;4,8408e-002;3,65743;3
167,97506;41,40583;4,8405e-002;3,65745;3
167,95012;41,41083;4,8401e-002;3,65748;3
167,92518;41,41583;4,8380e-002;3,65751;3
167,90018;41,42083;4,8377e-002;3,65753;3
167,87523;41,42583;4,8373e-002;3,65756;3
167,85035;41,43083;4,8352e-002;3,65759;3
167,82535;41,43583;4,8331e-002;3,65761;3
167,80047;41,44083;4,8274e-002;3,65764;3
167,77553;41,44583;4,8270e-002;3,65767;3
167,75059;41,45083;4,8267e-002;3,65769;3
167,72565;41,45583;4,8300e-002;3,65772;3
167,70065;41,46083;4,8333e-002;3,65775;3
167,67565;41,46583;4,8312e-002;3,65777;3
167,65071;41,47083;4,8326e-002;3,65780;3
167,62565;41,47583;4,8359e-002;3,65783;3
167,60053;41,48083;4,8392e-002;3,65785;3
167,57547;41,48583;4,8407e-002;3,65788;3
167,55041;41,49083;4,8440e-002;3,65791;3
167,52535;41,49583;4,8400e-002;3,65793;3
167,50041;41,50083;4,8379e-002;3,65796;3
167,47547;41,50583;4,8358e-002;3,65798;3
167,45047;41,51083;4,8318e-002;3,65801;3
167,42541;41,51583;4,8315e-002;3,65804;3
167,40035;41,52083;4,8402e-002;3,65806;3
167,37535;41,52583;4,8435e-002;3,65809;3
167,35035;41,53083;4,8468e-002;3,65812;3
167,32535;41,53583;4,8483e-002;3,65814;3
167,30041;41,54083;4,8498e-002;3,65817;3
167,27547;41,54583;4,8422e-002;3,65820;3
167,25047;41,55083;4,8437e-002;3,65822;3
167,22547;41,55583;4,8488e-002;3,65825;3
167,20047;41,56083;4,8521e-002;3,65827;3
167,17559;41,56583;4,8536e-002;3,65830;3
167,15059;41,57083;4,8569e-002;3,65833;3
167,12571;41,57583;4,8601e-002;3,65835;3
167,10088;41,58083;4,8653e-002;3,65838;3
167,07588;41,58583;4,8758e-002;3,65841;3
167,05088;41,59083;4,8790e-002;3,65843;3
167,02582;41,59583;4,8823e-002;3,65846;3
167,00076;41,60083;4,8892e-002;3,65848;3
166,97582;41,60583;4,8889e-002;3,65851;3
166,95071;41,61083;4,8886e-002;3,65854;3
166,92565;41,61583;4,8901e-002;3,65856;3
166,90065;41,62083;4,8934e-002;3,65859;3
166,87553;41,62583;4,8967e-002;3,65862;3
166,85053;41,63083;4,8981e-002;3,65864;3
166,82559;41,63583;4,8978e-002;3,65867;3
166,80059;41,64083;4,8975e-002;3,65869;3
166,77559;41,64583;4,9008e-002;3,65872;3
166,75053;41,65083;4,9022e-002;3,65875;3
166,72553;41,65583;4,9055e-002;3,65877;3
166,70041;41,66083;4,9106e-002;3,65880;3
166,67524;41,66583;4,9103e-002;3,65882;3
166,65018;41,67083;4,9118e-002;3,65885;3
166,62512;41,67583;4,9133e-002;3,65888;3
166,60024;41,68083;4,9147e-002;3,65890;3
166,57524;41,68583;4,9162e-002;3,65893;3
166,55024;41,69083;4,9177e-002;3,65895;3
166,52529;41,69583;4,9192e-002;3,65898;3
166,50029;41,70083;4,9207e-002;3,65901;3
166,47529;41,70583;4,9221e-002;3,65903;3
166,45035;41,71083;4,9218e-002;3,65906;3
166,42535;41,71583;4,9251e-002;3,65908;3
166,40035;41,72083;4,9284e-002;3,65911;3
166,37535;41,72583;4,9317e-002;3,65914;3
166,35041;41,73083;4,9314e-002;3,65916;3
166,32547;41,73583;4,9329e-002;3,65919;3
166,30053;41,74083;4,9325e-002;3,65921;3
166,27553;41,74583;4,9286e-002;3,65924;3
166,25059;41,75083;4,9319e-002;3,65926;3
166,22565;41,75583;4,9388e-002;3,65929;3
166,20077;41,76083;4,9475e-002;3,65932;3
166,17571;41,76583;4,9472e-002;3,65934;3
166,15077;41,77083;4,9523e-002;3,65937;3
166,12577;41,77583;4,9556e-002;3,65939;3
166,10082;41,78083;4,9534e-002;3,65942;3
166,07588;41,78583;4,9531e-002;3,65944;3
166,05088;41,79083;4,9546e-002;3,65947;3
166,02594;41,79583;4,9543e-002;3,65950;3
166,00100;41,80083;4,9558e-002;3,65952;3
165,97594;41,80583;4,9608e-002;3,65955;3
165,95100;41,81083;4,9623e-002;3,65957;3
165,92594;41,81583;4,9602e-002;3,65960;3
165,90094;41,82083;4,9599e-002;3,65962;3
165,87594;41,82583;4,9650e-002;3,65965;3
165,85100;41,83083;4,9845e-002;3,65968;3
165,82606;41,83583;4,9860e-002;3,65970;3
165,80100;41,84083;4,9839e-002;3,65973;3
165,77594;41,84583;4,9853e-002;3,65975;3
165,75088;41,85083;4,9868e-002;3,65978;3
165,72588;41,85583;4,9847e-002;3,65980;3
165,70088;41,86083;4,9844e-002;3,65983;3
165,67588;41,86583;4,9858e-002;3,65985;3
165,65083;41,87083;4,9946e-002;3,65988;3
165,62577;41,87583;4,9960e-002;3,65991;3
165,60071;41,88083;4,9993e-002;3,65993;3
165,57559;41,88583;5,0044e-002;3,65996;3
165,55065;41,89083;5,0023e-002;3,65998;3
165,52559;41,89583;5,0038e-002;3,66001;3
165,50059;41,90083;5,0034e-002;3,66003;3
165,47553;41,90583;5,0049e-002;3,66006;3
165,45047;41,91083;5,0100e-002;3,66008;3
165,42535;41,91583;5,0115e-002;3,66011;3
165,40029;41,92083;5,0112e-002;3,66014;3
165,37529;41,92583;5,0108e-002;3,66016;3
165,35029;41,93083;5,0177e-002;3,66019;3
165,32523;41,93583;5,0246e-002;3,66021;3
165,30012;41,94083;5,0279e-002;3,66024;3
165,27512;41,94583;5,0294e-002;3,66026;3
165,25012;41,95083;5,0327e-002;3,66029;3
165,22512;41,95583;5,0378e-002;3,66031;3
165,20012;41,96083;5,0411e-002;3,66034;3
165,17512;41,96583;5,0444e-002;3,66036;3
165,15018;41,97083;5,0477e-002;3,66039;3
165,12518;41,97583;5,0509e-002;3,66041;3
165,10023;41,98083;5,0524e-002;3,66044;3
165,07529;41,98583;5,0539e-002;3,66046;3
165,05035;41,99083;5,0500e-002;3,66049;3
165,02535;41,99583;5,0533e-002;3,66051;3
165,00047;42,00083;5,0583e-002;3,66054;3
164,97553;42,00583;5,0598e-002;3,66056;3
164,95059;42,01083;5,0613e-002;3,66059;3
164,92565;42,01583;5,0628e-002;3,66061;3
164,90076;42,02083;5,0643e-002;3,66064;3
164,87588;42,02583;5,0658e-002;3,66066;3
164,85082;42,03083;5,0709e-002;3,66069;3
164,82576;42,03583;5,0723e-002;3,66071;3
164,80077;42,04083;5,0738e-002;3,66074;3
164,77582;42,04583;5,0807e-002;3,66077;3
164,75082;42,05083;5,0876e-002;3,66079;3
164,72576;42,05583;5,0945e-002;3,66082;3
164,70082;42,06083;5,0978e-002;3,66084;3
164,67577;42,06583;5,1011e-002;3,66087;3
164,65076;42,07083;5,1008e-002;3,66089;3
164,62576;42,07583;5,1004e-002;3,66092;3
164,60088;42,08083;5,1037e-002;3,66094;3
164,57588;42,08583;5,1070e-002;3,66097;3
164,55088;42,09083;5,1085e-002;3,66099;3
164,52588;42,09583;5,1100e-002;3,66102;3
164,50076;42,10083;5,1115e-002;3,66104;3
164,47576;42,10583;5,1129e-002;3,66107;3
164,45077;42,11083;5,1144e-002;3,66109;3
164,42582;42,11583;5,1177e-002;3,66111;3
164,40082;42,12083;5,1210e-002;3,66114;3
164,37594;42,12583;5,1261e-002;3,66116;3
164,35094;42,13083;5,1294e-002;3,66119;3
164,32594;42,13583;5,1327e-002;3,66121;3
164,30100;42,14083;5,1359e-002;3,66124;3
164,27588;42,14583;5,1410e-002;3,66126;3
164,25082;42,15083;5,1534e-002;3,66129;3
164,22582;42,15583;5,1621e-002;3,66131;3
164,20082;42,16083;5,1581e-002;3,66134;3
164,17583;42,16583;5,1614e-002;3,66136;3
164,15083;42,17083;5,1647e-002;3,66139;3
164,12577;42,17583;5,1644e-002;3,66141;3
164,10077;42,18083;5,1640e-002;3,66144;3
164,07583;42,18583;5,1655e-002;3,66146;3
164,05083;42,19083;5,1706e-002;3,66149;3
164,02588;42,19583;5,1667e-002;3,66151;3
164,00088;42,20083;5,1754e-002;3,66154;3
163,97588;42,20583;5,1823e-002;3,66156;3
163,95082;42,21083;5,1802e-002;3,66159;3
163,92582;42,21583;5,1816e-002;3,66161;3
163,90082;42,22083;5,1921e-002;3,66163;3
163,87571;42,22583;5,1990e-002;3,66166;3
163,85082;42,23083;5,2041e-002;3,66168;3
163,82594;42,23583;5,2074e-002;3,66171;3
163,80094;42,24083;5,2053e-002;3,66173;3
163,77594;42,24583;5,2050e-002;3,66176;3
163,75088;42,25083;5,2028e-002;3,66178;3
163,72582;42,25583;5,2043e-002;3,66181;3
163,70082;42,26083;5,2076e-002;3,66183;3
163,67576;42,26583;5,2163e-002;3,66186;3
163,65076;42,27083;5,2250e-002;3,66188;3
163,62571;42,27583;5,2265e-002;3,66191;3
163,60059;42,28083;5,2298e-002;3,66193;3
163,57559;42,28583;5,2331e-002;3,66195;3
163,55059;42,29083;5,2345e-002;3,66198;3
163,52547;42,29583;5,2378e-002;3,66200;3
163,50041;42,30083;5,2411e-002;3,66203;3
163,47535;42,30583;5,2462e-002;3,66205;3
163,45047;42,31083;5,2495e-002;3,66208;3
163,42535;42,31583;5,2546e-002;3,66210;3
163,40035;42,32083;5,2615e-002;3,66213;3
163,37524;42,32583;5,2648e-002;3,66215;3
163,35018;42,33083;5,2662e-002;3,66217;3
163,32512;42,33583;5,2731e-002;3,66220;3
163,30012;42,34083;5,2746e-002;3,66222;3
163,27512;42,34583;5,2743e-002;3,66225;3
163,25012;42,35083;5,2794e-002;3,66227;3
163,22512;42,35583;5,2808e-002;3,66230;3
163,20012;42,36083;5,2878e-002;3,66232;3
163,17512;42,36583;5,2910e-002;3,66234;3
163,15000;42,37083;5,2925e-002;3,66237;3
163,12500;42,37583;5,2976e-002;3,66239;3
163,10000;42,38083;5,3045e-002;3,66242;3
163,07494;42,38583;5,3078e-002;3,66244;3
163,05000;42,39083;5,3111e-002;3,66247;3
163,02482;42,39583;5,3144e-002;3,66249;3
162,99976;42,40083;5,3176e-002;3,66252;3
162,97471;42,40583;5,3191e-002;3,66254;3
162,94959;42,41083;5,3224e-002;3,66256;3
162,92453;42,41583;5,3275e-002;3,66259;3
162,89953;42,42083;5,3326e-002;3,66261;3
162,87441;42,42583;5,3341e-002;3,66264;3
162,84941;42,43083;5,3392e-002;3,66266;3
162,82435;42,43583;5,3406e-002;3,66268;3
162,79929;42,44083;5,3439e-002;3,66271;3
162,77429;42,44583;5,3436e-002;3,66273;3
162,74923;42,45083;5,3414e-002;3,66276;3
162,72429;42,45583;5,3465e-002;3,66278;3
162,69929;42,46083;5,3571e-002;3,66280;3
162,67435;42,46583;5,3585e-002;3,66283;3
162,64935;42,47083;5,3582e-002;3,66285;3
162,62429;42,47583;5,3597e-002;3,66288;3
162,59935;42,48083;5,3666e-002;3,66290;3
162,57435;42,48583;5,3717e-002;3,66292;3
162,54929;42,49083;5,3768e-002;3,66295;3
162,52441;42,49583;5,3764e-002;3,66297;3
162,49941;42,50083;5,3761e-002;3,66300;3
162,47441;42,50583;5,3812e-002;3,66302;3
162,44947;42,51083;5,3881e-002;3,66304;3
162,42447;42,51583;5,3968e-002;3,66307;3
162,39947;42,52083;5,4037e-002;3,66309;3
162,37441;42,52583;5,4088e-002;3,66312;3
162,34941;42,53083;5,4157e-002;3,66314;3
162,32441;42,53583;5,4208e-002;3,66316;3
162,29941;42,54083;5,4240e-002;3,66319;3
162,27441;42,54583;5,4328e-002;3,66321;3
162,24947;42,55083;5,4378e-002;3,66324;3
162,22453;42,55583;5,4411e-002;3,66326;3
162,19953;42,56083;5,4426e-002;3,66328;3
162,17459;42,56583;5,4423e-002;3,66331;3
162,14965;42,57083;5,4420e-002;3,66333;3
162,12476;42,57583;5,4398e-002;3,66335;3
162,09988;42,58083;5,4413e-002;3,66338;3
162,07494;42,58583;5,4428e-002;3,66340;3
162,05000;42,59083;5,4461e-002;3,66343;3
162,02506;42,59583;5,4494e-002;3,66345;3
162,00012;42,60083;5,4599e-002;3,66347;3
161,97523;42,60583;5,4649e-002;3,66350;3
161,95029;42,61083;5,4718e-002;3,66352;3
161,92529;42,61583;5,4806e-002;3,66354;3
161,90029;42,62083;5,4929e-002;3,66357;3
161,87529;42,62583;5,4907e-002;3,66359;3
161,85029;42,63083;5,4940e-002;3,66361;3
161,82523;42,63583;5,4955e-002;3,66364;3
161,80024;42,64083;5,4934e-002;3,66366;3
161,77524;42,64583;5,5003e-002;3,66368;3
161,75024;42,65083;5,5053e-002;3,66371;3
161,72523;42,65583;5,5068e-002;3,66373;3
161,70018;42,66083;5,5263e-002;3,66376;3
161,67512;42,66583;5,5296e-002;3,66378;3
161,65012;42,67083;5,5329e-002;3,66380;3
161,62506;42,67583;5,5326e-002;3,66383;3
161,60012;42,68083;5,5359e-002;3,66385;3
161,57506;42,68583;5,5301e-002;3,66387;3
161,55000;42,69083;5,5334e-002;3,66390;3
161,52500;42,69583;5,5349e-002;3,66392;3
161,50012;42,70083;5,5454e-002;3,66394;3
161,47524;42,70583;5,5505e-002;3,66397;3
161,45024;42,71083;5,5538e-002;3,66399;3
161,42529;42,71583;5,5607e-002;3,66401;3
161,40029;42,72083;5,5730e-002;3,66404;3
161,37535;42,72583;5,5835e-002;3,66406;3
161,35035;42,73083;5,5849e-002;3,66408;3
161,32535;42,73583;5,5882e-002;3,66411;3
161,30035;42,74083;5,5897e-002;3,66413;3
161,27535;42,74583;5,5894e-002;3,66415;3
161,25035;42,75083;5,5945e-002;3,66418;3
161,22535;42,75583;5,5941e-002;3,66420;3
161,20041;42,76083;5,5956e-002;3,66422;3
161,17529;42,76583;5,5989e-002;3,66425;3
161,15029;42,77083;5,6058e-002;3,66427;3
161,12523;42,77583;5,6109e-002;3,66429;3
161,10018;42,78083;5,6142e-002;3,66432;3
161,07500;42,78583;5,6192e-002;3,66434;3
161,04988;42,79083;5,6261e-002;3,66436;3
161,02488;42,79583;5,6366e-002;3,66439;3
160,99976;42,80083;5,6417e-002;3,66441;3
160,97476;42,80583;5,6486e-002;3,66443;3
160,94965;42,81083;5,6537e-002;3,66446;3
160,92459;42,81583;5,6552e-002;3,66448;3
160,89959;42,82083;5,6548e-002;3,66450;3
160,87453;42,82583;5,6545e-002;3,66453;3
160,84953;42,83083;5,6704e-002;3,66455;3
160,82453;42,83583;5,6773e-002;3,66457;3
160,79953;42,84083;5,6824e-002;3,66460;3
160,77447;42,84583;5,6785e-002;3,66462;3
160,74953;42,85083;5,6782e-002;3,66464;3
160,72459;42,85583;5,6796e-002;3,66466;3
160,69965;42,86083;5,6829e-002;3,66469;3
160,67476;42,86583;5,6934e-002;3,66471;3
160,64982;42,87083;5,6985e-002;3,66473;3
160,62494;42,87583;5,7000e-002;3,66476;3
160,60000;42,88083;5,7051e-002;3,66478;3
160,57512;42,88583;5,7084e-002;3,66480;3
160,55012;42,89083;5,7152e-002;3,66483;3
160,52512;42,89583;5,7312e-002;3,66485;3
160,50012;42,90083;5,7417e-002;3,66487;3
160,47512;42,90583;5,7450e-002;3,66489;3
160,45018;42,91083;5,7518e-002;3,66492;3
160,42524;42,91583;5,7533e-002;3,66494;3
160,40018;42,92083;5,7548e-002;3,66496;3
160,37512;42,92583;5,7599e-002;3,66499;3
160,35012;42,93083;5,7650e-002;3,66501;3
160,32512;42,93583;5,7664e-002;3,66503;3
160,30006;42,94083;5,7715e-002;3,66505;3
160,27500;42,94583;5,7766e-002;3,66508;3
160,24988;42,95083;5,7817e-002;3,66510;3
160,22476;42,95583;5,7832e-002;3,66512;3
160,19971;42,96083;5,7846e-002;3,66515;3
160,17465;42,96583;5,7879e-002;3,66517;3
160,14959;42,97083;5,7912e-002;3,66519;3
160,12459;42,97583;5,7963e-002;3,66521;3
160,09959;42,98083;5,7978e-002;3,66524;3
160,07459;42,98583;5,8010e-002;3,66526;3
160,04959;42,99083;5,8025e-002;3,66528;3
160,02465;42,99583;5,8058e-002;3,66531;3
159,99965;43,00083;5,8145e-002;3,66533;3
159,97471;43,00583;5,8232e-002;3,66535;3
159,94971;43,01083;5,8373e-002;3,66537;3
159,92465;43,01583;5,8442e-002;3,66540;3
159,89965;43,02083;5,8457e-002;3,66542;3
159,87459;43,02583;5,8526e-002;3,66544;3
159,84965;43,03083;5,8558e-002;3,66546;3
159,82470;43,03583;5,8664e-002;3,66549;3
159,79976;43,04083;5,8750e-002;3,66551;3
159,77470;43,04583;5,8819e-002;3,66553;3
159,74965;43,05083;5,8870e-002;3,66555;3
159,72465;43,05583;5,8921e-002;3,66558;3
159,69959;43,06083;5,8990e-002;3,66560;3
159,67459;43,06583;5,9023e-002;3,66562;3
159,64959;43,07083;5,9001e-002;3,66564;3
159,62459;43,07583;5,9016e-002;3,66567;3
159,59947;43,08083;5,9067e-002;3,66569;3
159,57441;43,08583;5,9172e-002;3,66571;3
159,54941;43,09083;5,9277e-002;3,66573;3
159,52447;43,09583;5,9328e-002;3,66576;3
159,49947;43,10083;5,9360e-002;3,66578;3
159,47447;43,10583;5,9447e-002;3,66580;3
159,44953;43,11083;5,9606e-002;3,66582;3
159,42453;43,11583;5,9675e-002;3,66585;3
159,39953;43,12083;5,9708e-002;3,66587;3
159,37453;43,12583;5,9741e-002;3,66589;3
159,34959;43,13083;5,9720e-002;3,66591;3
159,32453;43,13583;5,9698e-002;3,66594;3
159,29953;43,14083;5,9713e-002;3,66596;3
159,27465;43,14583;5,9728e-002;3,66598;3
159,24965;43,15083;5,9779e-002;3,66600;3
159,22465;43,15583;5,9884e-002;3,66603;3
159,19959;43,16083;6,0043e-002;3,66605;3
159,17465;43,16583;6,0112e-002;3,66607;3
159,14965;43,17083;6,0181e-002;3,66609;3
159,12453;43,17583;6,0213e-002;3,66611;3
159,09941;43,18083;6,0282e-002;3,66614;3
159,07441;43,18583;6,0297e-002;3,66616;3
159,04935;43,19083;6,0294e-002;3,66618;3
159,02435;43,19583;6,0362e-002;3,66620;3
158,99929;43,20083;6,0359e-002;3,66623;3
158,97423;43,20583;6,0410e-002;3,66625;3
158,94923;43,21083;6,0461e-002;3,66627;3
158,92412;43,21583;6,0494e-002;3,66629;3
158,89918;43,22083;6,0526e-002;3,66631;3
158,87406;43,22583;6,0794e-002;3,66634;3
158,84894;43,23083;6,0899e-002;3,66636;3
158,82400;43,23583;6,0950e-002;3,66638;3
158,79906;43,24083;6,0928e-002;3,66640;3
158,77406;43,24583;6,0943e-002;3,66642;3
158,74900;43,25083;6,0994e-002;3,66645;3
158,72394;43,25583;6,0990e-002;3,66647;3
158,69894;43,26083;6,1023e-002;3,66649;3
158,67406;43,26583;6,1092e-002;3,66651;3
158,64906;43,27083;6,1125e-002;3,66654;3
158,62406;43,27583;6,1230e-002;3,66656;3
158,59906;43,28083;6,1407e-002;3,66658;3
158,57406;43,28583;6,1620e-002;3,66660;3
158,54906;43,29083;6,1725e-002;3,66662;3
158,52406;43,29583;6,1794e-002;3,66664;3
158,49918;43,30083;6,1736e-002;3,66667;3
158,47424;43,30583;6,1661e-002;3,66669;3
158,44929;43,31083;6,1694e-002;3,66671;3
158,42429;43,31583;6,1799e-002;3,66673;3
158,39929;43,32083;6,1868e-002;3,66675;3
158,37418;43,32583;6,1882e-002;3,66678;3
158,34918;43,33083;6,1933e-002;3,66680;3
158,32418;43,33583;6,1966e-002;3,66682;3
158,29918;43,34083;6,2035e-002;3,66684;3
158,27423;43,34583;6,2140e-002;3,66686;3
158,24923;43,35083;6,2173e-002;3,66689;3
158,22429;43,35583;6,2205e-002;3,66691;3
158,19941;43,36083;6,2292e-002;3,66693;3
158,17429;43,36583;6,2415e-002;3,66695;3
158,14935;43,37083;6,2502e-002;3,66697;3
158,12441;43,37583;6,2589e-002;3,66699;3
158,09941;43,38083;6,2640e-002;3,66702;3
158,07435;43,38583;6,2673e-002;3,66704;3
158,04935;43,39083;6,2669e-002;3,66706;3
158,02441;43,39583;6,2648e-002;3,66708;3
157,99947;43,40083;6,2681e-002;3,66710;3
157,97447;43,40583;6,2822e-002;3,66712;3
157,94959;43,41083;6,2909e-002;3,66715;3
157,92459;43,41583;6,3032e-002;3,66717;3
157,89959;43,42083;6,3155e-002;3,66719;3
157,87459;43,42583;6,3223e-002;3,66721;3
157,84965;43,43083;6,3256e-002;3,66723;3
157,82465;43,43583;6,3217e-002;3,66725;3
157,79959;43,44083;6,3286e-002;3,66728;3
157,77447;43,44583;6,3373e-002;3,66730;3
157,74959;43,45083;6,3496e-002;3,66732;3
157,72459;43,45583;6,3546e-002;3,66734;3
157,69947;43,46083;6,3579e-002;3,66736;3
157,67453;43,46583;6,3666e-002;3,66738;3
157,64953;43,47083;6,3699e-002;3,66741;3
157,62453;43,47583;6,3786e-002;3,66743;3
157,59947;43,48083;6,3873e-002;3,66745;3
157,57447;43,48583;6,3923e-002;3,66747;3
157,54941;43,49083;6,4028e-002;3,66749;3
157,52441;43,49583;6,4097e-002;3,66751;3
157,49941;43,50083;6,4184e-002;3,66753;3
157,47441;43,50583;6,4271e-002;3,66756;3
157,44941;43,51083;6,4376e-002;3,66758;3
157,42435;43,51583;6,4445e-002;3,66760;3
157,39929;43,52083;6,4549e-002;3,66762;3
157,37429;43,52583;6,4636e-002;3,66764;3
157,34935;43,53083;6,4723e-002;3,66766;3
157,32429;43,53583;6,4828e-002;3,66768;3
157,29918;43,54083;6,4825e-002;3,66771;3
157,27424;43,54583;6,4930e-002;3,66773;3
157,24918;43,55083;6,4980e-002;3,66775;3
157,22418;43,55583;6,4995e-002;3,66777;3
157,19906;43,56083;6,5064e-002;3,66779;3
157,17406;43,56583;6,5169e-002;3,66781;3
157,14906;43,57083;6,5310e-002;3,66783;3
157,12406;43,57583;6,5397e-002;3,66785;3
157,09906;43,58083;6,5483e-002;3,66788;3
157,07406;43,58583;6,5462e-002;3,66790;3
157,04906;43,59083;6,5549e-002;3,66792;3
157,02412;43,59583;6,5600e-002;3,66794;3
156,99912;43,60083;6,5651e-002;3,66796;3
156,97406;43,60583;6,5719e-002;3,66798;3
156,94906;43,61083;6,5824e-002;3,66800;3
156,92406;43,61583;6,5965e-002;3,66802;3
156,89906;43,62083;6,6052e-002;3,66805;3
156,87418;43,62583;6,6121e-002;3,66807;3
156,84917;43,63083;6,6190e-002;3,66809;3
156,82417;43,63583;6,6421e-002;3,66811;3
156,79917;43,64083;6,6508e-002;3,66813;3
156,77417;43,64583;6,6558e-002;3,66815;3
156,74929;43,65083;6,6627e-002;3,66817;3
156,72423;43,65583;6,6642e-002;3,66819;3
156,69929;43,66083;6,6711e-002;3,66821;3
156,67423;43,66583;6,6780e-002;3,66823;3
156,64923;43,67083;6,6884e-002;3,66826;3
156,62429;43,67583;6,6971e-002;3,66828;3
156,59935;43,68083;6,7058e-002;3,66830;3
156,57441;43,68583;6,7199e-002;3,66832;3
156,54953;43,69083;6,7358e-002;3,66834;3
156,52453;43,69583;6,7373e-002;3,66836;3
156,49953;43,70083;6,7424e-002;3,66838;3
156,47453;43,70583;6,7546e-002;3,66840;3
156,44947;43,71083;6,7633e-002;3,66842;3
156,42447;43,71583;6,7702e-002;3,66844;3
156,39947;43,72083;6,7843e-002;3,66847;3
156,37447;43,72583;6,7984e-002;3,66849;3
156,34953;43,73083;6,8071e-002;3,66851;3
156,32441;43,73583;6,8157e-002;3,66853;3
156,29941;43,74083;6,8298e-002;3,66855;3
156,27435;43,74583;6,8403e-002;3,66857;3
156,24930;43,75083;6,8472e-002;3,66859;3
156,22435;43,75583;6,8559e-002;3,66861;3
156,19929;43,76083;6,8646e-002;3,66863;3
156,17412;43,76583;6,8624e-002;3,66865;3
156,14900;43,77083;6,8639e-002;3,66867;3
156,12382;43,77583;6,8708e-002;3,66869;3
156,09876;43,78083;6,8795e-002;3,66872;3
156,07370;43,78583;6,9026e-002;3,66874;3
156,04859;43,79083;6,9130e-002;3,66876;3
156,02353;43,79583;6,9235e-002;3,66878;3
155,99841;43,80083;6,9322e-002;3,66880;3
155,97335;43,80583;6,9355e-002;3,66882;3
155,94829;43,81083;6,9424e-002;3,66884;3
155,92323;43,81583;6,9474e-002;3,66886;3
155,89818;43,82083;6,9525e-002;3,66888;3
155,87312;43,82583;6,9648e-002;3,66890;3
155,84806;43,83083;6,9825e-002;3,66892;3
155,82300;43,83583;7,0038e-002;3,66894;3
155,79788;43,84083;7,0179e-002;3,66896;3
155,77282;43,84583;7,0266e-002;3,66898;3
155,74788;43,85083;7,0370e-002;3,66901;3
155,72288;43,85583;7,0511e-002;3,66903;3
155,69794;43,86083;7,0652e-002;3,66905;3
155,67300;43,86583;7,0865e-002;3,66907;3
155,64800;43,87083;7,1024e-002;3,66909;3
155,62312;43,87583;7,1147e-002;3,66911;3
155,59818;43,88083;7,1306e-002;3,66913;3
155,57329;43,88583;7,1465e-002;3,66915;3
155,54835;43,89083;7,1569e-002;3,66917;3
155,52341;43,89583;7,1620e-002;3,66919;3
155,49847;43,90083;7,1599e-002;3,66921;3
155,47359;43,90583;7,1686e-002;3,66923;3
155,44870;43,91083;7,1773e-002;3,66925;3
155,42382;43,91583;7,2021e-002;3,66927;3
155,39894;43,92083;7,2180e-002;3,66929;3
155,37406;43,92583;7,2321e-002;3,66931;3
155,34918;43,93083;7,2444e-002;3,66933;3
155,32418;43,93583;7,2585e-002;3,66935;3
155,29923;43,94083;7,2726e-002;3,66937;3
155,27429;43,94583;7,2849e-002;3,66939;3
155,24929;43,95083;7,2971e-002;3,66941;3
155,22435;43,95583;7,3004e-002;3,66943;3
155,19929;43,96083;7,3001e-002;3,66945;3
155,17429;43,96583;7,3052e-002;3,66947;3
155,14923;43,97083;7,3120e-002;3,66949;3
155,12418;43,97583;7,3189e-002;3,66951;3
155,09912;43,98083;7,3294e-002;3,66953;3
155,07406;43,98583;7,3417e-002;3,66955;3
155,04894;43,99083;7,3558e-002;3,66957;3
155,02382;43,99583;7,3825e-002;3,66960;3
154,99871;44,00083;7,4073e-002;3,66962;3
154,97359;44,00583;7,4286e-002;3,66964;3
154,94847;44,01083;7,4427e-002;3,66966;3
154,92341;44,01583;7,4496e-002;3,66968;3
154,89841;44,02083;7,4493e-002;3,66970;3
154,87335;44,02583;7,4561e-002;3,66972;3
154,84829;44,03083;7,4702e-002;3,66974;3
154,82324;44,03583;7,4897e-002;3,66976;3
154,79818;44,04083;7,5020e-002;3,66978;3
154,77318;44,04583;7,5178e-002;3,66980;3
154,74824;44,05083;7,5319e-002;3,66982;3
154,72330;44,05583;7,5478e-002;3,66984;3
154,69841;44,06083;7,5745e-002;3,66986;3
154,67347;44,06583;7,5850e-002;3,66988;3
154,64853;44,07083;7,5991e-002;3,66990;3
154,62359;44,07583;7,6078e-002;3,66992;3
154,59865;44,08083;7,6254e-002;3,66994;3
154,57377;44,08583;7,6395e-002;3,66996;3
154,54888;44,09083;7,6518e-002;3,66998;3
154,52394;44,09583;7,6641e-002;3,67000;3
154,49888;44,10083;7,6782e-002;3,67002;3
154,47388;44,10583;7,6959e-002;3,67004;3
154,44888;44,11083;7,7099e-002;3,67006;3
154,42394;44,11583;7,7276e-002;3,67008;3
154,39900;44,12083;7,7471e-002;3,67010;3
154,37394;44,12583;7,7666e-002;3,67012;3
154,34900;44,13083;7,7861e-002;3,67014;3
154,32388;44,13583;7,7965e-002;3,67016;3
154,29888;44,14083;7,8070e-002;3,67018;3
154,27377;44,14583;7,8175e-002;3,67020;3
154,24871;44,15083;7,8334e-002;3,67022;3
154,22365;44,15583;7,8475e-002;3,67024;3
154,19859;44,16083;7,8579e-002;3,67026;3
154,17347;44,16583;7,8720e-002;3,67027;3
154,14835;44,17083;7,8915e-002;3,67029;3
154,12330;44,17583;7,9110e-002;3,67031;3
154,09818;44,18083;7,9305e-002;3,67033;3
154,07312;44,18583;7,9481e-002;3,67035;3
154,04800;44,19083;7,9568e-002;3,67037;3
154,02300;44,19583;7,9565e-002;3,67039;3
153,99794;44,20083;7,9651e-002;3,67041;3
153,97294;44,20583;7,9972e-002;3,67043;3
153,94794;44,21083;8,0221e-002;3,67045;3
153,92288;44,21583;8,0398e-002;3,67047;3
153,89788;44,22083;8,0575e-002;3,67049;3
153,87282;44,22583;8,0733e-002;3,67051;3
153,84788;44,23083;8,0856e-002;3,67053;3
153,82288;44,23583;8,0871e-002;3,67055;3
153,79794;44,24083;8,1048e-002;3,67057;3
153,77294;44,24583;8,1279e-002;3,67059;3
153,74800;44,25083;8,1401e-002;3,67061;3
153,72294;44,25583;8,1614e-002;3,67063;3
153,69800;44,26083;8,1845e-002;3,67065;3
153,67306;44,26583;8,2112e-002;3,67067;3
153,64812;44,27083;8,2307e-002;3,67069;3
153,62324;44,27583;8,2519e-002;3,67071;3
153,59824;44,28083;8,2696e-002;3,67073;3
153,57329;44,28583;8,2837e-002;3,67075;3
153,54829;44,29083;8,2996e-002;3,67077;3
153,52329;44,29583;8,3208e-002;3,67078;3
153,49829;44,30083;8,3403e-002;3,67080;3
153,47329;44,30583;8,3598e-002;3,67082;3
153,44829;44,31083;8,3793e-002;3,67084;3
153,42323;44,31583;8,3934e-002;3,67086;3
153,39823;44,32083;8,4110e-002;3,67088;3
153,37323;44,32583;8,4305e-002;3,67090;3
153,34823;44,33083;8,4446e-002;3,67092;3
153,32323;44,33583;8,4623e-002;3,67094;3
153,29829;44,34083;8,4817e-002;3,67096;3
153,27323;44,34583;8,5030e-002;3,67098;3
153,24823;44,35083;8,5243e-002;3,67100;3
153,22329;44,35583;8,5474e-002;3,67102;3
153,19824;44,36083;8,5723e-002;3,67104;3
153,17329;44,36583;8,5917e-002;3,67106;3
153,14824;44,37083;8,6112e-002;3,67107;3
153,12324;44,37583;8,6289e-002;3,67109;3
153,09829;44,38083;8,6412e-002;3,67111;3
153,07335;44,38583;8,6534e-002;3,67113;3
153,04835;44,39083;8,6729e-002;3,67115;3
153,02341;44,39583;8,6942e-002;3,67117;3
152,99841;44,40083;8,7191e-002;3,67119;3
152,97341;44,40583;8,7403e-002;3,67121;3
152,94841;44,41083;8,7634e-002;3,67123;3
152,92341;44,41583;8,7847e-002;3,67125;3
152,89841;44,42083;8,8060e-002;3,67127;3
152,87341;44,42583;8,8218e-002;3,67129;3
152,84841;44,43083;8,8413e-002;3,67131;3
152,82341;44,43583;8,8626e-002;3,67132;3
152,79835;44,44083;8,8821e-002;3,67134;3
152,77341;44,44583;8,9033e-002;3,67136;3
152,74835;44,45083;8,9228e-002;3,67138;3
152,72335;44,45583;8,9441e-002;3,67140;3
152,69830;44,46083;8,9689e-002;3,67142;3
152,67324;44,46583;8,9938e-002;3,67144;3
152,64818;44,47083;9,0187e-002;3,67146;3
152,62312;44,47583;9,0238e-002;3,67148;3
152,59800;44,48083;9,0432e-002;3,67150;3
152,57300;44,48583;9,0717e-002;3,67151;3
152,54800;44,49083;9,0930e-002;3,67153;3
152,52294;44,49583;9,1197e-002;3,67155;3
152,49800;44,50083;9,1391e-002;3,67157;3
152,47300;44,50583;9,1586e-002;3,67159;3
152,44800;44,51083;9,1799e-002;3,67161;3
152,42300;44,51583;9,2083e-002;3,67163;3
152,39806;44,52083;9,2332e-002;3,67165;3
152,37306;44,52583;9,2563e-002;3,67167;3
152,34806;44,53083;9,2812e-002;3,67168;3
152,32312;44,53583;9,2970e-002;3,67170;3
152,29818;44,54083;9,3093e-002;3,67172;3
152,27318;44,54583;9,3270e-002;3,67174;3
152,24812;44,55083;9,3554e-002;3,67176;3
152,22318;44,55583;9,3929e-002;3,67178;3
152,19829;44,56083;9,4214e-002;3,67180;3
152,17341;44,56583;9,4409e-002;3,67182;3
152,14847;44,57083;9,4657e-002;3,67183;3
152,12347;44,57583;9,4870e-002;3,67185;3
152,09847;44,58083;9,5083e-002;3,67187;3
152,07335;44,58583;9,5295e-002;3,67189;3
152,04841;44,59083;9,5490e-002;3,67191;3
152,02347;44,59583;9,5703e-002;3,67193;3
151,99847;44,60083;9,5915e-002;3,67195;3
151,97347;44,60583;9,6110e-002;3,67197;3
151,94847;44,61083;9,6359e-002;3,67198;3
151,92341;44,61583;9,6625e-002;3,67200;3
151,89841;44,62083;9,6838e-002;3,67202;3
151,87341;44,62583;9,7015e-002;3,67204;3
151,84841;44,63083;9,7209e-002;3,67206;3
151,82347;44,63583;9,7458e-002;3,67208;3
151,79835;44,64083;9,7725e-002;3,67210;3
151,77329;44,64583;9,7973e-002;3,67211;3
151,74818;44,65083;9,8168e-002;3,67213;3
151,72312;44,65583;9,8417e-002;3,67215;3
151,69800;44,66083;9,8647e-002;3,67217;3
151,67294;44,66583;9,8932e-002;3,67219;3
151,64794;44,67083;9,9163e-002;3,67221;3
151,62277;44,67583;9,9375e-002;3,67223;3
151,59759;44,68083;9,9606e-002;3,67224;3
151,57247;44,68583;9,9819e-002;3,67226;3
151,54735;44,69083;    0,10005;3,67228;3
151,52229;44,69583;    0,10032;3,67230;3
151,49718;44,70083;    0,10056;3,67232;3
151,47200;44,70583;    0,10078;3,67234;3
151,44688;44,71083;    0,10101;3,67236;3
151,42182;44,71583;    0,10120;3,67237;3
151,39671;44,72083;    0,10143;3,67239;3
151,37171;44,72583;    0,10168;3,67241;3
151,34659;44,73083;    0,10191;3,67243;3
151,32159;44,73583;    0,10214;3,67245;3
151,29647;44,74083;    0,10237;3,67247;3
151,27147;44,74583;    0,10257;3,67248;3
151,24647;44,75083;    0,10282;3,67250;3
151,22147;44,75583;    0,10308;3,67252;3
151,19653;44,76083;    0,10333;3,67254;3
151,17159;44,76583;    0,10354;3,67256;3
151,14670;44,77083;    0,10385;3,67258;3
151,12176;44,77583;    0,10413;3,67259;3
151,09676;44,78083;    0,10440;3,67261;3
151,07182;44,78583;    0,10448;3,67263;3
151,04694;44,79083;    0,10459;3,67265;3
151,02200;44,79583;    0,10477;3,67267;3
150,99706;44,80083;    0,10509;3,67268;3
150,97223;44,80583;    0,10537;3,67270;3
150,94735;44,81083;    0,10558;3,67272;3
150,92247;44,81583;    0,10581;3,67274;3
150,89753;44,82083;    0,10614;3,67276;3
150,87271;44,82583;    0,10642;3,67278;3
150,84782;44,83083;    0,10661;3,67279;3
150,82282;44,83583;    0,10670;3,67281;3
150,79782;44,84083;    0,10675;3,67283;3
150,77288;44,84583;    0,10709;3,67285;3
150,74794;44,85083;    0,10743;3,67287;3
150,72294;44,85583;    0,10773;3,67288;3
150,69794;44,86083;    0,10793;3,67290;3
150,67300;44,86583;    0,10796;3,67292;3
150,64800;44,87083;    0,10803;3,67294;3
150,62294;44,87583;    0,10828;3,67296;3
150,59794;44,88083;    0,10858;3,67297;3
150,57288;44,88583;    0,10876;3,67299;3
150,54782;44,89083;    0,10891;3,67301;3
150,52271;44,89583;    0,10911;3,67303;3
150,49771;44,90083;    0,10939;3,67305;3
150,47265;44,90583;    0,10962;3,67306;3
150,44759;44,91083;    0,10987;3,67308;3
150,42259;44,91583;    0,11010;3,67310;3
150,39771;44,92083;    0,11028;3,67312;3
150,37277;44,92583;    0,11046;3,67313;3
150,34777;44,93083;    0,11063;3,67315;3
150,32277;44,93583;    0,11083;3,67317;3
150,29777;44,94083;    0,11100;3,67319;3
150,27271;44,94583;    0,11118;3,67321;3
150,24771;44,95083;    0,11141;3,67322;3
150,22271;44,95583;    0,11164;3,67324;3
150,19783;44,96083;    0,11184;3,67326;3
150,17277;44,96583;    0,11201;3,67328;3
150,14777;44,97083;    0,11219;3,67329;3
150,12271;44,97583;    0,11240;3,67331;3
150,09765;44,98083;    0,11260;3,67333;3
150,07265;44,98583;    0,11277;3,67335;3
150,04771;44,99083;    0,11298;3,67337;3
150,02265;44,99583;    0,11322;3,67338;3
149,99765;45,00083;    0,11346;3,67340;3
149,97259;45,00583;    0,11351;3,67342;3
149,94759;45,01083;    0,11358;3,67344;3
149,92247;45,01583;    0,11367;3,67345;3
149,89747;45,02083;    0,11390;3,67347;3
149,87253;45,02583;    0,11409;3,67349;3
149,84759;45,03083;    0,11431;3,67351;3
149,82259;45,03583;    0,11447;3,67352;3
149,79759;45,04083;    0,11461;3,67354;3
149,77253;45,04583;    0,11475;3,67356;3
149,74759;45,05083;    0,11491;3,67358;3
149,72253;45,05583;    0,11503;3,67359;3
149,69747;45,06083;    0,11515;3,67361;3
149,67253;45,06583;    0,11533;3,67363;3
149,64747;45,07083;    0,11547;3,67365;3
149,62235;45,07583;    0,11563;3,67366;3
149,59735;45,08083;    0,11577;3,67368;3
149,57218;45,08583;    0,11592;3,67370;3
149,54712;45,09083;    0,11607;3,67372;3
149,52200;45,09583;    0,11622;3,67373;3
149,49694;45,10083;    0,11642;3,67375;3
149,47188;45,10583;    0,11650;3,67377;3
149,44676;45,11083;    0,11659;3,67379;3
149,42171;45,11583;    0,11668;3,67380;3
149,39659;45,12083;    0,11675;3,67382;3
149,37153;45,12583;    0,11712;3,67384;3
149,34641;45,13083;    0,11723;3,67386;3
149,32135;45,13583;    0,11738;3,67387;3
149,29641;45,14083;    0,11752;3,67389;3
149,27141;45,14583;    0,11763;3,67391;3
149,24647;45,15083;    0,11768;3,67393;3
149,22153;45,15583;    0,11778;3,67394;3
149,19659;45,16083;    0,11792;3,67396;3
149,17159;45,16583;    0,11805;3,67398;3
149,14665;45,17083;    0,11815;3,67399;3
149,12165;45,17583;    0,11827;3,67401;3
149,09665;45,18083;    0,11836;3,67403;3
149,07176;45,18583;    0,11847;3,67405;3
149,04676;45,19083;    0,11855;3,67406;3
149,02176;45,19583;    0,11866;3,67408;3
148,99676;45,20083;    0,11876;3,67410;3
148,97176;45,20583;    0,11885;3,67411;3
148,94688;45,21083;    0,11895;3,67413;3
148,92188;45,21583;    0,11906;3,67415;3
148,89688;45,22083;    0,11918;3,67417;3
148,87188;45,22583;    0,11918;3,67418;3
148,84694;45,23083;    0,11915;3,67420;3
148,82182;45,23583;    0,11915;3,67422;3
148,79676;45,24083;    0,11918;3,67423;3
148,77165;45,24583;    0,11932;3,67425;3
148,74659;45,25083;    0,11952;3,67427;3
148,72159;45,25583;    0,11964;3,67429;3
148,69659;45,26083;    0,11975;3,67430;3
148,67159;45,26583;    0,11978;3,67432;3
148,64659;45,27083;    0,11974;3,67434;3
148,62159;45,27583;    0,11984;3,67435;3
148,59647;45,28083;    0,11988;3,67437;3
148,57141;45,28583;    0,11993;3,67439;3
148,54641;45,29083;    0,11996;3,67440;3
148,52129;45,29583;    0,12001;3,67442;3
148,49629;45,30083;    0,12008;3,67444;3
148,47124;45,30583;    0,12011;3,67446;3
148,44618;45,31083;    0,12011;3,67447;3
148,42112;45,31583;    0,12016;3,67449;3
148,39612;45,32083;    0,12021;3,67451;3
148,37106;45,32583;    0,12033;3,67452;3
148,34612;45,33083;    0,12040;3,67454;3
148,32118;45,33583;    0,12040;3,67456;3
148,29617;45,34083;    0,12045;3,67457;3
148,27100;45,34583;    0,12050;3,67459;3
148,24594;45,35083;    0,12053;3,67461;3
148,22082;45,35583;    0,12060;3,67462;3
148,19570;45,36083;    0,12065;3,67464;3
148,17076;45,36583;    0,12066;3,67466;3
148,14570;45,37083;    0,12066;3,67467;3
148,12076;45,37583;    0,12064;3,67469;3
148,09570;45,38083;    0,12065;3,67471;3
148,07059;45,38583;    0,12065;3,67472;3
148,04553;45,39083;    0,12063;3,67474;3
148,02047;45,39583;    0,12068;3,67476;3
147,99541;45,40083;    0,12073;3,67477;3
147,97035;45,40583;    0,12072;3,67479;3
147,94535;45,41083;    0,12070;3,67481;3
147,92041;45,41583;    0,12072;3,67482;3
147,89535;45,42083;    0,12075;3,67484;3
147,87029;45,42583;    0,12073;3,67486;3
147,84535;45,43083;    0,12073;3,67487;3
147,82035;45,43583;    0,12074;3,67489;3
147,79541;45,44083;    0,12077;3,67491;3
147,77047;45,44583;    0,12081;3,67492;3
147,74541;45,45083;    0,12077;3,67494;3
147,72047;45,45583;    0,12074;3,67496;3
147,69541;45,46083;    0,12074;3,67497;3
147,67047;45,46583;    0,12077;3,67499;3
147,64553;45,47083;    0,12079;3,67501;3
147,62047;45,47583;    0,12075;3,67502;3
147,59547;45,48083;    0,12067;3,67504;3
147,57053;45,48583;    0,12065;3,67506;3
147,54559;45,49083;    0,12063;3,67507;3
147,52053;45,49583;    0,12061;3,67509;3
147,49547;45,50083;    0,12059;3,67511;3
147,47041;45,50583;    0,12055;3,67512;3
147,44541;45,51083;    0,12051;3,67514;3
147,42035;45,51583;    0,12047;3,67515;3
147,39541;45,52083;    0,12039;3,67517;3
147,37035;45,52583;    0,12037;3,67519;3
147,34529;45,53083;    0,12033;3,67520;3
147,32035;45,53583;    0,12028;3,67522;3
147,29530;45,54083;    0,12018;3,67524;3
147,27030;45,54583;    0,12009;3,67525;3
147,24530;45,55083;    0,12001;3,67527;3
147,22035;45,55583;    0,11997;3,67529;3
147,19547;45,56083;    0,11994;3,67530;3
147,17053;45,56583;    0,11988;3,67532;3
147,14553;45,57083;    0,11980;3,67533;3
147,12059;45,57583;    0,11974;3,67535;3
147,09571;45,58083;    0,11969;3,67537;3
147,07076;45,58583;    0,11965;3,67538;3
147,04582;45,59083;    0,11959;3,67540;3
147,02088;45,59583;    0,11935;3,67541;3
146,99606;45,60083;    0,11931;3,67543;3
146,97106;45,60583;    0,11931;3,67545;3
146,94606;45,61083;    0,11924;3,67546;3
146,92112;45,61583;    0,11916;3,67548;3
146,89606;45,62083;    0,11910;3,67550;3
146,87106;45,62583;    0,11901;3,67551;3
146,84600;45,63083;    0,11892;3,67553;3
146,82094;45,63583;    0,11886;3,67554;3
146,79588;45,64083;    0,11877;3,67556;3
146,77094;45,64583;    0,11867;3,67558;3
146,74588;45,65083;    0,11856;3,67559;3
146,72094;45,65583;    0,11843;3,67561;3
146,69594;45,66083;    0,11830;3,67562;3
146,67088;45,66583;    0,11817;3,67564;3
146,64570;45,67083;    0,11808;3,67566;3
146,62076;45,67583;    0,11800;3,67567;3
146,59582;45,68083;    0,11786;3,67569;3
146,57082;45,68583;    0,11775;3,67570;3
146,54582;45,69083;    0,11762;3,67572;3
146,52088;45,69583;    0,11750;3,67574;3
146,49588;45,70083;    0,11736;3,67575;3
146,47094;45,70583;    0,11726;3,67577;3
146,44600;45,71083;    0,11722;3,67578;3
146,42106;45,71583;    0,11719;3,67580;3
146,39612;45,72083;    0,11713;3,67581;3
146,37118;45,72583;    0,11703;3,67583;3
146,34606;45,73083;    0,11685;3,67585;3
146,32100;45,73583;    0,11672;3,67586;3
146,29582;45,74083;    0,11659;3,67588;3
146,27071;45,74583;    0,11643;3,67589;3
146,24565;45,75083;    0,11624;3,67591;3
146,22071;45,75583;    0,11617;3,67593;3
146,19565;45,76083;    0,11615;3,67594;3
146,17065;45,76583;    0,11604;3,67596;3
146,14559;45,77083;    0,11592;3,67597;3
146,12059;45,77583;    0,11576;3,67599;3
146,09559;45,78083;    0,11567;3,67600;3
146,07059;45,78583;    0,11557;3,67602;3
146,04559;45,79083;    0,11534;3,67603;3
146,02059;45,79583;    0,11519;3,67605;3
145,99565;45,80083;    0,11502;3,67607;3
145,97065;45,80583;    0,11488;3,67608;3
145,94565;45,81083;    0,11475;3,67610;3
145,92071;45,81583;    0,11465;3,67611;3
145,89576;45,82083;    0,11454;3,67613;3
145,87082;45,82583;    0,11447;3,67614;3
145,84582;45,83083;    0,11423;3,67616;3
145,82082;45,83583;    0,11403;3,67618;3
145,79582;45,84083;    0,11399;3,67619;3
145,77082;45,84583;    0,11390;3,67621;3
145,74571;45,85083;    0,11377;3,67622;3
145,72070;45,85583;    0,11364;3,67624;3
145,69570;45,86083;    0,11351;3,67625;3
145,67070;45,86583;    0,11340;3,67627;3
145,64559;45,87083;    0,11329;3,67628;3
145,62047;45,87583;    0,11312;3,67630;3
145,59541;45,88083;    0,11294;3,67632;3
145,57035;45,88583;    0,11275;3,67633;3
145,54529;45,89083;    0,11261;3,67635;3
145,52024;45,89583;    0,11246;3,67636;3
145,49518;45,90083;    0,11229;3,67638;3
145,47024;45,90583;    0,11215;3,67639;3
145,44518;45,91083;    0,11202;3,67641;3
145,42024;45,91583;    0,11191;3,67642;3
145,39518;45,92083;    0,11178;3,67644;3
145,37024;45,92583;    0,11163;3,67645;3
145,34518;45,93083;    0,11148;3,67647;3
145,32018;45,93583;    0,11134;3,67648;3
145,29518;45,94083;    0,11115;3,67650;3
145,27018;45,94583;    0,11099;3,67652;3
145,24512;45,95083;    0,11080;3,67653;3
145,22024;45,95583;    0,11069;3,67655;3
145,19529;45,96083;    0,11058;3,67656;3
145,17029;45,96583;    0,11047;3,67658;3
145,14523;45,97083;    0,11032;3,67659;3
145,12029;45,97583;    0,11016;3,67661;3
145,09529;45,98083;    0,10998;3,67662;3
145,07024;45,98583;    0,10979;3,67664;3
145,04524;45,99083;    0,10959;3,67665;3
145,02035;45,99583;    0,10943;3,67667;3
144,99524;46,00083;    0,10931;3,67668;3
144,97029;46,00583;    0,10920;3,67670;3
144,94524;46,01083;    0,10909;3,67671;3
144,92029;46,01583;    0,10891;3,67673;3
144,89529;46,02083;    0,10871;3,67674;3
144,87024;46,02583;    0,10852;3,67676;3
144,84518;46,03083;    0,10838;3,67677;3
144,82012;46,03583;    0,10819;3,67679;3
144,79506;46,04083;    0,10805;3,67680;3
144,77012;46,04583;    0,10790;3,67682;3
144,74512;46,05083;    0,10773;3,67683;3
144,72012;46,05583;    0,10761;3,67685;3
144,69500;46,06083;    0,10746;3,67686;3
144,67000;46,06583;    0,10726;3,67688;3
144,64506;46,07083;    0,10707;3,67689;3
144,62000;46,07583;    0,10691;3,67691;3
144,59488;46,08083;    0,10673;3,67692;3
144,56994;46,08583;    0,10652;3,67694;3
144,54500;46,09083;    0,10634;3,67695;3
144,52000;46,09583;    0,10616;3,67697;3
144,49494;46,10083;    0,10598;3,67698;3
144,46994;46,10583;    0,10576;3,67700;3
144,44494;46,11083;    0,10565;3,67701;3
144,42000;46,11583;    0,10562;3,67703;3
144,39512;46,12083;    0,10542;3,67704;3
144,37018;46,12583;    0,10526;3,67706;3
144,34518;46,13083;    0,10511;3,67707;3
144,32024;46,13583;    0,10495;3,67709;3
144,29524;46,14083;    0,10474;3,67710;3
144,27029;46,14583;    0,10444;3,67712;3
144,24524;46,15083;    0,10425;3,67713;3
144,22024;46,15583;    0,10414;3,67715;3
144,19524;46,16083;    0,10396;3,67716;3
144,17029;46,16583;    0,10395;3,67717;3
144,14530;46,17083;    0,10383;3,67719;3
144,12024;46,17583;    0,10364;3,67720;3
144,09524;46,18083;    0,10351;3,67722;3
144,07030;46,18583;    0,10335;3,67723;3
144,04535;46,19083;    0,10306;3,67725;3
144,02035;46,19583;    0,10284;3,67726;3
143,99536;46,20083;    0,10262;3,67728;3
143,97030;46,20583;    0,10242;3,67729;3
143,94524;46,21083;    0,10227;3,67731;3
143,92024;46,21583;    0,10209;3,67732;3
143,89518;46,22083;    0,10190;3,67734;3
143,87024;46,22583;    0,10172;3,67735;3
143,84530;46,23083;    0,10152;3,67736;3
143,82041;46,23583;    0,10137;3,67738;3
143,79547;46,24083;    0,10123;3,67739;3
143,77047;46,24583;    0,10122;3,67741;3
143,74547;46,25083;    0,10113;3,67742;3
143,72047;46,25583;    0,10100;3,67744;3
143,69553;46,26083;    0,10082;3,67745;3
143,67053;46,26583;    0,10063;3,67747;3
143,64541;46,27083;    0,10045;3,67748;3
143,62035;46,27583;    0,10029;3,67750;3
143,59535;46,28083;    0,10014;3,67751;3
143,57029;46,28583;9,9956e-002;3,67752;3
143,54535;46,29083;9,9773e-002;3,67754;3
143,52035;46,29583;9,9590e-002;3,67755;3
143,49524;46,30083;9,9407e-002;3,67757;3
143,47029;46,30583;9,9206e-002;3,67758;3
143,44524;46,31083;9,9041e-002;3,67760;3
143,42012;46,31583;9,8840e-002;3,67761;3
143,39506;46,32083;9,8657e-002;3,67762;3
143,37006;46,32583;9,8474e-002;3,67764;3
143,34512;46,33083;9,8291e-002;3,67765;3
143,32018;46,33583;9,8144e-002;3,67767;3
143,29518;46,34083;9,7997e-002;3,67768;3
143,27012;46,34583;9,7814e-002;3,67770;3
143,24518;46,35083;9,7649e-002;3,67771;3
143,22024;46,35583;9,7501e-002;3,67772;3
143,19535;46,36083;9,7337e-002;3,67774;3
143,17035;46,36583;9,7208e-002;3,67775;3
143,14535;46,37083;9,7060e-002;3,67777;3
143,12036;46,37583;9,6931e-002;3,67778;3
143,09535;46,38083;9,6802e-002;3,67780;3
143,07047;46,38583;9,6691e-002;3,67781;3
143,04541;46,39083;9,6544e-002;3,67782;3
143,02053;46,39583;9,6361e-002;3,67784;3
142,99559;46,40083;9,6178e-002;3,67785;3
142,97065;46,40583;9,6049e-002;3,67787;3
142,94559;46,41083;9,5974e-002;3,67788;3
142,92053;46,41583;9,5863e-002;3,67789;3
142,89547;46,42083;9,5680e-002;3,67791;3
142,87053;46,42583;9,5515e-002;3,67792;3
142,84559;46,43083;9,5188e-002;3,67794;3
142,82059;46,43583;9,5095e-002;3,67795;3
142,79565;46,44083;9,5019e-002;3,67797;3
142,77065;46,44583;9,4819e-002;3,67798;3
142,74577;46,45083;9,4564e-002;3,67799;3
142,72077;46,45583;9,4452e-002;3,67801;3
142,69577;46,46083;9,4323e-002;3,67802;3
142,67088;46,46583;9,4194e-002;3,67803;3
142,64582;46,47083;9,4083e-002;3,67805;3
142,62088;46,47583;9,3954e-002;3,67806;3
142,59582;46,48083;9,3807e-002;3,67808;3
142,57077;46,48583;9,3678e-002;3,67809;3
142,54577;46,49083;9,3477e-002;3,67810;3
142,52082;46,49583;9,3240e-002;3,67812;3
142,49588;46,50083;9,3021e-002;3,67813;3
142,47088;46,50583;9,2910e-002;3,67815;3
142,44588;46,51083;9,2853e-002;3,67816;3
142,42088;46,51583;9,2742e-002;3,67817;3
142,39582;46,52083;9,2541e-002;3,67819;3
142,37077;46,52583;9,2394e-002;3,67820;3
142,34571;46,53083;9,2229e-002;3,67822;3
142,32065;46,53583;9,2046e-002;3,67823;3
142,29577;46,54083;9,1845e-002;3,67824;3
142,27077;46,54583;9,1680e-002;3,67826;3
142,24571;46,55083;9,1569e-002;3,67827;3
142,22077;46,55583;9,1422e-002;3,67828;3
142,19582;46,56083;9,1203e-002;3,67830;3
142,17088;46,56583;9,1020e-002;3,67831;3
142,14600;46,57083;9,0891e-002;3,67833;3
142,12106;46,57583;9,0762e-002;3,67834;3
142,09612;46,58083;9,0633e-002;3,67835;3
142,07112;46,58583;9,0486e-002;3,67837;3
142,04618;46,59083;9,0339e-002;3,67838;3
142,02118;46,59583;9,0192e-002;3,67839;3
141,99623;46,60083;9,0045e-002;3,67841;3
141,97123;46,60583;8,9898e-002;3,67842;3
141,94629;46,61083;8,9751e-002;3,67843;3
141,92129;46,61583;8,9604e-002;3,67845;3
141,89629;46,62083;8,9421e-002;3,67846;3
141,87129;46,62583;8,9310e-002;3,67847;3
141,84629;46,63083;8,9217e-002;3,67849;3
141,82129;46,63583;8,9106e-002;3,67850;3
141,79629;46,64083;8,8977e-002;3,67852;3
141,77123;46,64583;8,8794e-002;3,67853;3
141,74623;46,65083;8,8611e-002;3,67854;3
141,72123;46,65583;8,8428e-002;3,67856;3
141,69618;46,66083;8,8263e-002;3,67857;3
141,67117;46,66583;8,8134e-002;3,67858;3
141,64623;46,67083;8,8005e-002;3,67860;3
141,62123;46,67583;8,7840e-002;3,67861;3
141,59623;46,68083;8,7729e-002;3,67862;3
141,57118;46,68583;8,7564e-002;3,67864;3
141,54629;46,69083;8,7417e-002;3,67865;3
141,52129;46,69583;8,7288e-002;3,67866;3
141,49629;46,70083;8,7159e-002;3,67868;3
141,47129;46,70583;8,7030e-002;3,67869;3
141,44629;46,71083;8,6901e-002;3,67870;3
141,42135;46,71583;8,6754e-002;3,67872;3
141,39635;46,72083;8,6589e-002;3,67873;3
141,37141;46,72583;8,6424e-002;3,67874;3
141,34641;46,73083;8,6277e-002;3,67876;3
141,32141;46,73583;8,6166e-002;3,67877;3
141,29641;46,74083;8,6055e-002;3,67878;3
141,27135;46,74583;8,5980e-002;3,67880;3
141,24618;46,75083;8,5869e-002;3,67881;3
141,22106;46,75583;8,5704e-002;3,67882;3
141,19600;46,76083;8,5575e-002;3,67884;3
141,17094;46,76583;8,5518e-002;3,67885;3
141,14582;46,77083;8,5389e-002;3,67886;3
141,12071;46,77583;8,5206e-002;3,67888;3
141,09565;46,78083;8,5059e-002;3,67889;3
141,07059;46,78583;8,4984e-002;3,67890;3
141,04547;46,79083;8,4855e-002;3,67892;3
141,02029;46,79583;8,4726e-002;3,67893;3
140,99518;46,80083;8,4579e-002;3,67894;3
140,97012;46,80583;8,4450e-002;3,67895;3
140,94500;46,81083;8,4303e-002;3,67897;3
140,91994;46,81583;8,4156e-002;3,67898;3
140,89482;46,82083;8,3973e-002;3,67899;3
140,86982;46,82583;8,3773e-002;3,67901;3
140,84488;46,83083;8,3590e-002;3,67902;3
140,82000;46,83583;8,3532e-002;3,67903;3
140,79500;46,84083;8,3476e-002;3,67905;3
140,77012;46,84583;8,3418e-002;3,67906;3
140,74512;46,85083;8,3271e-002;3,67907;3
140,72024;46,85583;8,3161e-002;3,67908;3
140,69524;46,86083;8,2960e-002;3,67910;3
140,67024;46,86583;8,2777e-002;3,67911;3
140,64518;46,87083;8,2630e-002;3,67912;3
140,62029;46,87583;8,2573e-002;3,67914;3
140,59535;46,88083;8,2462e-002;3,67915;3
140,57035;46,88583;8,2333e-002;3,67916;3
140,54529;46,89083;8,2258e-002;3,67918;3
140,52035;46,89583;8,2201e-002;3,67919;3
140,49535;46,90083;8,2108e-002;3,67920;3
140,47029;46,90583;8,2015e-002;3,67921;3
140,44518;46,91083;8,1904e-002;3,67923;3
140,42012;46,91583;8,1757e-002;3,67924;3
140,39506;46,92083;8,1592e-002;3,67925;3
140,37006;46,92583;8,1481e-002;3,67927;3
140,34494;46,93083;8,1496e-002;3,67928;3
140,31994;46,93583;8,1403e-002;3,67929;3
140,29488;46,94083;8,1292e-002;3,67930;3
140,26988;46,94583;8,1073e-002;3,67932;3
140,24488;46,95083;8,0908e-002;3,67933;3
140,21994;46,95583;8,0761e-002;3,67934;3
140,19488;46,96083;8,0614e-002;3,67935;3
140,16988;46,96583;8,0467e-002;3,67937;3
140,14482;46,97083;8,0338e-002;3,67938;3
140,11988;46,97583;8,0173e-002;3,67939;3
140,09488;46,98083;8,0027e-002;3,67941;3
140,06988;46,98583;7,9898e-002;3,67942;3
140,04500;46,99083;7,9769e-002;3,67943;3
140,02012;46,99583;7,9658e-002;3,67944;3
139,99518;47,00083;7,9583e-002;3,67946;3
139,97012;47,00583;7,9490e-002;3,67947;3
139,94506;47,01083;7,9486e-002;3,67948;3
139,92000;47,01583;7,9411e-002;3,67949;3
139,89494;47,02083;7,9247e-002;3,67951;3
139,87000;47,02583;7,9172e-002;3,67952;3
139,84500;47,03083;7,9043e-002;3,67953;3
139,81994;47,03583;7,8968e-002;3,67954;3
139,79506;47,04083;7,8965e-002;3,67956;3
139,77012;47,04583;7,8853e-002;3,67957;3
139,74523;47,05083;7,8635e-002;3,67958;3
139,72029;47,05583;7,8506e-002;3,67959;3
139,69529;47,06083;7,8323e-002;3,67961;3
139,67024;47,06583;7,8320e-002;3,67962;3
139,64529;47,07083;7,8173e-002;3,67963;3
139,62035;47,07583;7,7972e-002;3,67964;3
139,59535;47,08083;7,7808e-002;3,67966;3
139,57029;47,08583;7,7696e-002;3,67967;3
139,54541;47,09083;7,7586e-002;3,67968;3
139,52047;47,09583;7,7510e-002;3,67969;3
139,49559;47,10083;7,7525e-002;3,67971;3
139,47071;47,10583;7,7504e-002;3,67972;3
139,44571;47,11083;7,7268e-002;3,67973;3
139,42082;47,11583;7,7049e-002;3,67974;3
139,39588;47,12083;7,6902e-002;3,67975;3
139,37076;47,12583;7,6827e-002;3,67977;3
139,34582;47,13083;7,6734e-002;3,67978;3
139,32076;47,13583;7,6695e-002;3,67979;3
139,29582;47,14083;7,6620e-002;3,67980;3
139,27088;47,14583;7,6491e-002;3,67982;3
139,24594;47,15083;7,6380e-002;3,67983;3
139,22082;47,15583;7,6287e-002;3,67984;3
139,19576;47,16083;7,6140e-002;3,67985;3
139,17071;47,16583;7,6029e-002;3,67986;3
139,14571;47,17083;7,5918e-002;3,67988;3
139,12059;47,17583;7,5843e-002;3,67989;3
139,09565;47,18083;7,5768e-002;3,67990;3
139,07059;47,18583;7,5639e-002;3,67991;3
139,04553;47,19083;7,5546e-002;3,67993;3
139,02053;47,19583;7,5453e-002;3,67994;3
138,99541;47,20083;7,5361e-002;3,67995;3
138,97035;47,20583;7,5285e-002;3,67996;3
138,94529;47,21083;7,5175e-002;3,67997;3
138,92018;47,21583;7,5063e-002;3,67999;3
138,89512;47,22083;7,4989e-002;3,68000;3
138,87006;47,22583;7,4896e-002;3,68001;3
138,84500;47,23083;7,4803e-002;3,68002;3
138,81988;47,23583;7,4746e-002;3,68003;3
138,79494;47,24083;7,4671e-002;3,68005;3
138,76988;47,24583;7,4542e-002;3,68006;3
138,74483;47,25083;7,4431e-002;3,68007;3
138,71983;47,25583;7,4338e-002;3,68008;3
138,69477;47,26083;7,4191e-002;3,68009;3
138,66965;47,26583;7,4062e-002;3,68011;3
138,64465;47,27083;7,3933e-002;3,68012;3
138,61959;47,27583;7,3786e-002;3,68013;3
138,59453;47,28083;7,3765e-002;3,68014;3
138,56947;47,28583;7,3744e-002;3,68015;3
138,54453;47,29083;7,3687e-002;3,68017;3
138,51953;47,29583;7,3576e-002;3,68018;3
138,49453;47,30083;7,3411e-002;3,68019;3
138,46953;47,30583;7,3301e-002;3,68020;3
138,44453;47,31083;7,3226e-002;3,68021;3
138,41953;47,31583;7,3169e-002;3,68022;3
138,39453;47,32083;7,3130e-002;3,68024;3
138,36947;47,32583;7,3090e-002;3,68025;3
138,34441;47,33083;7,3034e-002;3,68026;3
138,31947;47,33583;7,2851e-002;3,68027;3
138,29441;47,34083;7,2632e-002;3,68028;3
138,26947;47,34583;7,2593e-002;3,68030;3
138,24447;47,35083;7,2626e-002;3,68031;3
138,21953;47,35583;7,2623e-002;3,68032;3
138,19453;47,36083;7,2548e-002;3,68033;3
138,16953;47,36583;7,2527e-002;3,68034;3
138,14459;47,37083;7,2416e-002;3,68035;3
138,11959;47,37583;7,2287e-002;3,68037;3
138,09465;47,38083;7,2230e-002;3,68038;3
138,06971;47,38583;7,2155e-002;3,68039;3
138,04476;47,39083;7,1936e-002;3,68040;3
138,01977;47,39583;7,1826e-002;3,68041;3
137,99482;47,40083;7,1696e-002;3,68042;3
137,96994;47,40583;7,1604e-002;3,68043;3
137,94512;47,41083;7,1565e-002;3,68045;3
137,92029;47,41583;7,1436e-002;3,68046;3
137,89547;47,42083;7,1397e-002;3,68047;3
137,87059;47,42583;7,1340e-002;3,68048;3
137,84571;47,43083;7,1229e-002;3,68049;3
137,82088;47,43583;7,1172e-002;3,68050;3
137,79588;47,44083;7,1097e-002;3,68052;3
137,77106;47,44583;7,1040e-002;3,68053;3
137,74612;47,45083;7,0965e-002;3,68054;3
137,72124;47,45583;7,0872e-002;3,68055;3
137,69629;47,46083;7,0744e-002;3,68056;3
137,67135;47,46583;7,0614e-002;3,68057;3
137,64635;47,47083;7,0504e-002;3,68058;3
137,62129;47,47583;7,0393e-002;3,68060;3
137,59629;47,48083;7,0336e-002;3,68061;3
137,57123;47,48583;7,0261e-002;3,68062;3
137,54623;47,49083;7,0150e-002;3,68063;3
137,52112;47,49583;7,0039e-002;3,68064;3
137,49600;47,50083;6,9928e-002;3,68065;3
137,47082;47,50583;6,9817e-002;3,68066;3
137,44576;47,51083;6,9724e-002;3,68067;3
137,42071;47,51583;6,9631e-002;3,68069;3
137,39559;47,52083;6,9574e-002;3,68070;3
137,37053;47,52583;6,9535e-002;3,68071;3
137,34547;47,53083;6,9532e-002;3,68072;3
137,32041;47,53583;6,9475e-002;3,68073;3
137,29529;47,54083;6,9400e-002;3,68074;3
137,27018;47,54583;6,9307e-002;3,68075;3
137,24506;47,55083;6,9161e-002;3,68077;3
137,22000;47,55583;6,9014e-002;3,68078;3
137,19500;47,56083;6,8921e-002;3,68079;3
137,16994;47,56583;6,8864e-002;3,68080;3
137,14488;47,57083;6,8753e-002;3,68081;3
137,11977;47,57583;6,8696e-002;3,68082;3
137,09482;47,58083;6,8693e-002;3,68083;3
137,06982;47,58583;6,8654e-002;3,68084;3
137,04482;47,59083;6,8615e-002;3,68085;3
137,01988;47,59583;6,8576e-002;3,68087;3
136,99488;47,60083;6,8501e-002;3,68088;3
136,96988;47,60583;6,8390e-002;3,68089;3
136,94494;47,61083;6,8297e-002;3,68090;3
136,91982;47,61583;6,8150e-002;3,68091;3
136,89482;47,62083;6,8076e-002;3,68092;3
136,86988;47,62583;6,8055e-002;3,68093;3
136,84494;47,63083;6,7980e-002;3,68094;3
136,81994;47,63583;6,7779e-002;3,68095;3
136,79488;47,64083;6,7668e-002;3,68096;3
136,76988;47,64583;6,7701e-002;3,68098;3
136,74494;47,65083;6,7698e-002;3,68099;3
136,71994;47,65583;6,7713e-002;3,68100;3
136,69500;47,66083;6,7692e-002;3,68101;3
136,66994;47,66583;6,7599e-002;3,68102;3
136,64494;47,67083;6,7398e-002;3,68103;3
136,61994;47,67583;6,7287e-002;3,68104;3
136,59488;47,68083;6,7320e-002;3,68105;3
136,56988;47,68583;6,7263e-002;3,68106;3
136,54488;47,69083;6,7188e-002;3,68107;3
136,51977;47,69583;6,7059e-002;3,68108;3
136,49482;47,70083;6,6913e-002;3,68110;3
136,46977;47,70583;6,6838e-002;3,68111;3
136,44465;47,71083;6,6799e-002;3,68112;3
136,41965;47,71583;6,6778e-002;3,68113;3
136,39465;47,72083;6,6703e-002;3,68114;3
136,36965;47,72583;6,6610e-002;3,68115;3
136,34459;47,73083;6,6499e-002;3,68116;3
136,31953;47,73583;6,6478e-002;3,68117;3
136,29453;47,74083;6,6385e-002;3,68118;3
136,26947;47,74583;6,6274e-002;3,68119;3
136,24441;47,75083;6,6217e-002;3,68120;3
136,21935;47,75583;6,6160e-002;3,68121;3
136,19424;47,76083;6,6103e-002;3,68122;3
136,16924;47,76583;6,6100e-002;3,68124;3
136,14424;47,77083;6,6097e-002;3,68125;3
136,11918;47,77583;6,6040e-002;3,68126;3
136,09418;47,78083;6,5983e-002;3,68127;3
136,06918;47,78583;6,5890e-002;3,68128;3
136,04424;47,79083;6,5798e-002;3,68129;3
136,01930;47,79583;6,5705e-002;3,68130;3
135,99424;47,80083;6,5630e-002;3,68131;3
135,96924;47,80583;6,5573e-002;3,68132;3
135,94429;47,81083;6,5498e-002;3,68133;3
135,91929;47,81583;6,5459e-002;3,68134;3
135,89441;47,82083;6,5384e-002;3,68135;3
135,86941;47,82583;6,5273e-002;3,68136;3
135,84441;47,83083;6,5198e-002;3,68137;3
135,81941;47,83583;6,5124e-002;3,68138;3
135,79447;47,84083;6,5066e-002;3,68139;3
135,76965;47,84583;6,4992e-002;3,68140;3
135,74453;47,85083;6,4899e-002;3,68141;3
135,71953;47,85583;6,4824e-002;3,68142;3
135,69465;47,86083;6,4785e-002;3,68144;3
135,66965;47,86583;6,4728e-002;3,68145;3
135,64459;47,87083;6,4653e-002;3,68146;3
135,61959;47,87583;6,4596e-002;3,68147;3
135,59459;47,88083;6,4503e-002;3,68148;3
135,56959;47,88583;6,4411e-002;3,68149;3
135,54471;47,89083;6,4353e-002;3,68150;3
135,51971;47,89583;6,4315e-002;3,68151;3
135,49482;47,90083;6,4258e-002;3,68152;3
135,46977;47,90583;6,4201e-002;3,68153;3
135,44482;47,91083;6,4126e-002;3,68154;3
135,41988;47,91583;6,4051e-002;3,68155;3
135,39500;47,92083;6,3976e-002;3,68156;3
135,37006;47,92583;6,3901e-002;3,68157;3
135,34506;47,93083;6,3808e-002;3,68158;3
135,32024;47,93583;6,3733e-002;3,68159;3
135,29529;47,94083;6,3677e-002;3,68160;3
135,27024;47,94583;6,3637e-002;3,68161;3
135,24535;47,95083;6,3581e-002;3,68162;3
135,22047;47,95583;6,3577e-002;3,68163;3
135,19547;47,96083;6,3557e-002;3,68164;3
135,17047;47,96583;6,3500e-002;3,68165;3
135,14553;47,97083;6,3443e-002;3,68166;3
135,12059;47,97583;6,3260e-002;3,68167;3
135,09559;47,98083;6,3131e-002;3,68168;3
135,07053;47,98583;6,3020e-002;3,68169;3
135,04559;47,99083;6,2928e-002;3,68170;3
135,02059;47,99583;6,2853e-002;3,68171;3
134,99565;48,00083;6,2796e-002;3,68172;3
134,97071;48,00583;6,2811e-002;3,68173;3
134,94565;48,01083;6,2700e-002;3,68174;3
134,92065;48,01583;6,2625e-002;3,68175;3
134,89559;48,02083;6,2550e-002;3,68176;3
134,87053;48,02583;6,2475e-002;3,68177;3
134,84559;48,03083;6,2400e-002;3,68178;3
134,82059;48,03583;6,2361e-002;3,68179;3
134,79547;48,04083;6,2305e-002;3,68180;3
134,77047;48,04583;6,2230e-002;3,68181;3
134,74547;48,05083;6,2191e-002;3,68182;3
134,72047;48,05583;6,2134e-002;3,68183;3
134,69535;48,06083;6,2041e-002;3,68184;3
134,67035;48,06583;6,1930e-002;3,68185;3
134,64541;48,07083;6,1855e-002;3,68186;3
134,62047;48,07583;6,1780e-002;3,68187;3
134,59553;48,08083;6,1723e-002;3,68188;3
134,57053;48,08583;6,1649e-002;3,68189;3
134,54541;48,09083;6,1592e-002;3,68190;3
134,52053;48,09583;6,1607e-002;3,68191;3
134,49547;48,10083;6,1621e-002;3,68192;3
134,47053;48,10583;6,1600e-002;3,68193;3
134,44559;48,11083;6,1544e-002;3,68194;3
134,42053;48,11583;6,1487e-002;3,68195;3
134,39541;48,12083;6,1448e-002;3,68196;3
134,37053;48,12583;6,1319e-002;3,68197;3
134,34553;48,13083;6,1190e-002;3,68198;3
134,32059;48,13583;6,1133e-002;3,68199;3
134,29559;48,14083;6,1040e-002;3,68200;3
134,27065;48,14583;6,1002e-002;3,68201;3
134,24559;48,15083;6,0945e-002;3,68202;3
134,22047;48,15583;6,0870e-002;3,68203;3
134,19535;48,16083;6,0813e-002;3,68204;3
134,17024;48,16583;6,0738e-002;3,68205;3
134,14512;48,17083;6,0663e-002;3,68206;3
134,12012;48,17583;6,0588e-002;3,68207;3
134,09494;48,18083;6,0513e-002;3,68208;3
134,06988;48,18583;6,0439e-002;3,68209;3
134,04476;48,19083;6,0381e-002;3,68209;3
134,01965;48,19583;6,0378e-002;3,68210;3
133,99459;48,20083;6,0358e-002;3,68211;3
133,96965;48,20583;6,0247e-002;3,68212;3
133,94459;48,21083;6,0190e-002;3,68213;3
133,91959;48,21583;6,0187e-002;3,68214;3
133,89459;48,22083;6,0130e-002;3,68215;3
133,86965;48,22583;6,0091e-002;3,68216;3
133,84453;48,23083;6,0052e-002;3,68217;3
133,81953;48,23583;6,0049e-002;3,68218;3
133,79465;48,24083;6,0010e-002;3,68219;3
133,76971;48,24583;5,9935e-002;3,68220;3
133,74482;48,25083;5,9878e-002;3,68221;3
133,71988;48,25583;5,9839e-002;3,68222;3
133,69494;48,26083;5,9801e-002;3,68223;3
133,67000;48,26583;5,9636e-002;3,68224;3
133,64506;48,27083;5,9543e-002;3,68225;3
133,62018;48,27583;5,9486e-002;3,68226;3
133,59524;48,28083;5,9411e-002;3,68227;3
133,57030;48,28583;5,9354e-002;3,68227;3
133,54530;48,29083;5,9333e-002;3,68228;3
133,52030;48,29583;5,9348e-002;3,68229;3
133,49530;48,30083;5,9327e-002;3,68230;3
133,47024;48,30583;5,9306e-002;3,68231;3
133,44518;48,31083;5,9267e-002;3,68232;3
133,42024;48,31583;5,9246e-002;3,68233;3
133,39524;48,32083;5,9154e-002;3,68234;3
133,37012;48,32583;5,9061e-002;3,68235;3
133,34500;48,33083;5,8986e-002;3,68236;3
133,31988;48,33583;5,8893e-002;3,68237;3
133,29488;48,34083;5,8800e-002;3,68238;3
133,26983;48,34583;5,8743e-002;3,68239;3
133,24483;48,35083;5,8704e-002;3,68239;3
133,21977;48,35583;5,8648e-002;3,68240;3
133,19471;48,36083;5,8555e-002;3,68241;3
133,16971;48,36583;5,8462e-002;3,68242;3
133,14465;48,37083;5,8387e-002;3,68243;3
133,11965;48,37583;5,8420e-002;3,68244;3
133,09471;48,38083;5,8417e-002;3,68245;3
133,06965;48,38583;5,8378e-002;3,68246;3
133,04476;48,39083;5,8375e-002;3,68247;3
133,01977;48,39583;5,8336e-002;3,68248;3
132,99482;48,40083;5,8261e-002;3,68249;3
132,96982;48,40583;5,8186e-002;3,68249;3
132,94488;48,41083;5,8004e-002;3,68250;3
132,92000;48,41583;5,7911e-002;3,68251;3
132,89500;48,42083;5,7926e-002;3,68252;3
132,87000;48,42583;5,7941e-002;3,68253;3
132,84500;48,43083;5,7902e-002;3,68254;3
132,82000;48,43583;5,7827e-002;3,68255;3
132,79512;48,44083;5,7788e-002;3,68256;3
132,77012;48,44583;5,7713e-002;3,68257;3
132,74512;48,45083;5,7674e-002;3,68258;3
132,72018;48,45583;5,7600e-002;3,68258;3
132,69518;48,46083;5,7579e-002;3,68259;3
132,67012;48,46583;5,7594e-002;3,68260;3
132,64518;48,47083;5,7573e-002;3,68261;3
132,62006;48,47583;5,7516e-002;3,68262;3
132,59500;48,48083;5,7459e-002;3,68263;3
132,57000;48,48583;5,7420e-002;3,68264;3
132,54506;48,49083;5,7363e-002;3,68265;3
132,52000;48,49583;5,7306e-002;3,68266;3
132,49488;48,50083;5,7249e-002;3,68266;3
132,46988;48,50583;5,7210e-002;3,68267;3
132,44488;48,51083;5,7154e-002;3,68268;3
132,41982;48,51583;5,7115e-002;3,68269;3
132,39471;48,52083;5,7022e-002;3,68270;3
132,36959;48,52583;5,6965e-002;3,68271;3
132,34447;48,53083;5,6926e-002;3,68272;3
132,31941;48,53583;5,6869e-002;3,68273;3
132,29435;48,54083;5,6794e-002;3,68273;3
132,26929;48,54583;5,6701e-002;3,68274;3
132,24424;48,55083;5,6591e-002;3,68275;3
132,21918;48,55583;5,6552e-002;3,68276;3
132,19418;48,56083;5,6513e-002;3,68277;3
132,16918;48,56583;5,6492e-002;3,68278;3
132,14406;48,57083;5,6489e-002;3,68279;3
132,11912;48,57583;5,6450e-002;3,68279;3
132,09418;48,58083;5,6375e-002;3,68280;3
132,06923;48,58583;5,6318e-002;3,68281;3
132,04429;48,59083;5,6261e-002;3,68282;3
132,01935;48,59583;5,6223e-002;3,68283;3
131,99435;48,60083;5,6202e-002;3,68284;3
131,96947;48,60583;5,6145e-002;3,68285;3
131,94453;48,61083;5,6106e-002;3,68285;3
131,91965;48,61583;5,6013e-002;3,68286;3
131,89471;48,62083;5,5956e-002;3,68287;3
131,86971;48,62583;5,5899e-002;3,68288;3
131,84477;48,63083;5,5878e-002;3,68289;3
131,81988;48,63583;5,5822e-002;3,68290;3
131,79494;48,64083;5,5800e-002;3,68291;3
131,76988;48,64583;5,5726e-002;3,68291;3
131,74488;48,65083;5,5651e-002;3,68292;3
131,71994;48,65583;5,5594e-002;3,68293;3
131,69483;48,66083;5,5609e-002;3,68294;3
131,66971;48,66583;5,5588e-002;3,68295;3
131,64465;48,67083;5,5531e-002;3,68296;3
131,61959;48,67583;5,5510e-002;3,68296;3
131,59447;48,68083;5,5489e-002;3,68297;3
131,56941;48,68583;5,5450e-002;3,68298;3
131,54430;48,69083;5,5411e-002;3,68299;3
131,51924;48,69583;5,5355e-002;3,68300;3
131,49418;48,70083;5,5208e-002;3,68301;3
131,46918;48,70583;5,5115e-002;3,68301;3
131,44418;48,71083;5,5076e-002;3,68302;3
131,41912;48,71583;5,5001e-002;3,68303;3
131,39406;48,72083;5,4927e-002;3,68304;3
131,36912;48,72583;5,4941e-002;3,68305;3
131,34418;48,73083;5,4938e-002;3,68305;3
131,31918;48,73583;5,4882e-002;3,68306;3
131,29412;48,74083;5,4897e-002;3,68307;3
131,26906;48,74583;5,4876e-002;3,68308;3
131,24418;48,75083;5,4783e-002;3,68309;3
131,21918;48,75583;5,4690e-002;3,68310;3
131,19418;48,76083;5,4705e-002;3,68310;3
131,16918;48,76583;5,4684e-002;3,68311;3
131,14424;48,77083;5,4645e-002;3,68312;3
131,11930;48,77583;5,4624e-002;3,68313;3
131,09429;48,78083;5,4639e-002;3,68314;3
131,06929;48,78583;5,4636e-002;3,68314;3
131,04424;48,79083;5,4597e-002;3,68315;3
131,01924;48,79583;5,4541e-002;3,68316;3
130,99424;48,80083;5,4394e-002;3,68317;3
130,96912;48,80583;5,4355e-002;3,68318;3
130,94406;48,81083;5,4298e-002;3,68318;3
130,91894;48,81583;5,4295e-002;3,68319;3
130,89400;48,82083;5,4274e-002;3,68320;3
130,86900;48,82583;5,4217e-002;3,68321;3
130,84412;48,83083;5,4143e-002;3,68322;3
130,81906;48,83583;5,4104e-002;3,68322;3
130,79406;48,84083;5,4047e-002;3,68323;3
130,76906;48,84583;5,4008e-002;3,68324;3
130,74406;48,85083;5,3969e-002;3,68325;3
130,71912;48,85583;5,3876e-002;3,68326;3
130,69418;48,86083;5,3837e-002;3,68326;3
130,66924;48,86583;5,3852e-002;3,68327;3
130,64430;48,87083;5,3849e-002;3,68328;3
130,61936;48,87583;5,3828e-002;3,68329;3
130,59447;48,88083;5,3789e-002;3,68330;3
130,56959;48,88583;5,3733e-002;3,68330;3
130,54477;48,89083;5,3712e-002;3,68331;3
130,51977;48,89583;5,3673e-002;3,68332;3
130,49488;48,90083;5,3616e-002;3,68333;3
130,46988;48,90583;5,3577e-002;3,68333;3
130,44494;48,91083;5,3556e-002;3,68334;3
130,41994;48,91583;5,3481e-002;3,68335;3
130,39500;48,92083;5,3407e-002;3,68336;3
130,37000;48,92583;5,3368e-002;3,68336;3
130,34506;48,93083;5,3293e-002;3,68337;3
130,32012;48,93583;5,3254e-002;3,68338;3
130,29512;48,94083;5,3161e-002;3,68339;3
130,27018;48,94583;5,3087e-002;3,68340;3
130,24518;48,95083;5,3030e-002;3,68340;3
130,22012;48,95583;5,2955e-002;3,68341;3
130,19500;48,96083;5,2898e-002;3,68342;3
130,16988;48,96583;5,2805e-002;3,68343;3
130,14482;48,97083;5,2731e-002;3,68343;3
130,11977;48,97583;5,2674e-002;3,68344;3
130,09482;48,98083;5,2689e-002;3,68345;3
130,06976;48,98583;5,2704e-002;3,68346;3
130,04471;48,99083;5,2683e-002;3,68346;3
130,01965;48,99583;5,2626e-002;3,68347;3
129,99459;49,00083;5,2551e-002;3,68348;3
129,96953;49,00583;5,2476e-002;3,68349;3
129,94447;49,01083;5,2420e-002;3,68349;3
129,91941;49,01583;5,2381e-002;3,68350;3
129,89435;49,02083;5,2306e-002;3,68351;3
129,86929;49,02583;5,2303e-002;3,68352;3
129,84418;49,03083;5,2300e-002;3,68352;3
129,81912;49,03583;5,2279e-002;3,68353;3
129,79406;49,04083;5,2258e-002;3,68354;3
129,76906;49,04583;5,2219e-002;3,68355;3
129,74400;49,05083;5,2162e-002;3,68355;3
129,71894;49,05583;5,2123e-002;3,68356;3
129,69388;49,06083;5,2031e-002;3,68357;3
129,66871;49,06583;5,1974e-002;3,68358;3
129,64365;49,07083;5,1881e-002;3,68358;3
129,61865;49,07583;5,1842e-002;3,68359;3
129,59365;49,08083;5,1803e-002;3,68360;3
129,56865;49,08583;5,1764e-002;3,68360;3
129,54359;49,09083;5,1743e-002;3,68361;3
129,51865;49,09583;5,1651e-002;3,68362;3
129,49371;49,10083;5,1612e-002;3,68363;3
129,46871;49,10583;5,1537e-002;3,68363;3
129,44365;49,11083;5,1534e-002;3,68364;3
129,41865;49,11583;5,1513e-002;3,68365;3
129,39359;49,12083;5,1510e-002;3,68366;3
129,36870;49,12583;5,1489e-002;3,68366;3
129,34376;49,13083;5,1432e-002;3,68367;3
129,31876;49,13583;5,1394e-002;3,68368;3
129,29376;49,14083;5,1319e-002;3,68368;3
129,26876;49,14583;5,1244e-002;3,68369;3
129,24382;49,15083;5,1205e-002;3,68370;3
129,21888;49,15583;5,1130e-002;3,68371;3
129,19382;49,16083;5,1055e-002;3,68371;3
129,16876;49,16583;5,1089e-002;3,68372;3
129,14376;49,17083;5,1103e-002;3,68373;3
129,11876;49,17583;5,1118e-002;3,68373;3
129,09370;49,18083;5,1115e-002;3,68374;3
129,06865;49,18583;5,1077e-002;3,68375;3
129,04365;49,19083;5,1002e-002;3,68376;3
129,01870;49,19583;5,0945e-002;3,68376;3
128,99371;49,20083;5,0906e-002;3,68377;3
128,96876;49,20583;5,0867e-002;3,68378;3
128,94376;49,21083;5,0792e-002;3,68378;3
128,91876;49,21583;5,0718e-002;3,68379;3
128,89376;49,22083;5,0661e-002;3,68380;3
128,86876;49,22583;5,0640e-002;3,68380;3
128,84376;49,23083;5,0637e-002;3,68381;3
128,81870;49,23583;5,0598e-002;3,68382;3
128,79365;49,24083;5,0613e-002;3,68382;3
128,76859;49,24583;5,0556e-002;3,68383;3
128,74359;49,25083;5,0518e-002;3,68384;3
128,71859;49,25583;5,0461e-002;3,68385;3
128,69359;49,26083;5,0422e-002;3,68385;3
128,66853;49,26583;5,0401e-002;3,68386;3
128,64347;49,27083;5,0362e-002;3,68387;3
128,61835;49,27583;5,0359e-002;3,68387;3
128,59323;49,28083;5,0302e-002;3,68388;3
128,56817;49,28583;5,0245e-002;3,68389;3
128,54312;49,29083;5,0206e-002;3,68389;3
128,51794;49,29583;5,0168e-002;3,68390;3
128,49282;49,30083;5,0164e-002;3,68391;3
128,46788;49,30583;5,0143e-002;3,68391;3
128,44282;49,31083;5,0159e-002;3,68392;3
128,41770;49,31583;5,0084e-002;3,68393;3
128,39265;49,32083;5,0027e-002;3,68393;3
128,36759;49,32583;5,0006e-002;3,68394;3
128,34259;49,33083;4,9985e-002;3,68395;3
128,31753;49,33583;4,9928e-002;3,68395;3
128,29235;49,34083;4,9889e-002;3,68396;3
128,26724;49,34583;4,9851e-002;3,68397;3
128,24218;49,35083;4,9812e-002;3,68397;3
128,21706;49,35583;4,9827e-002;3,68398;3
128,19200;49,36083;4,9842e-002;3,68399;3
128,16688;49,36583;4,9803e-002;3,68399;3
128,14177;49,37083;4,9746e-002;3,68400;3
128,11671;49,37583;4,9743e-002;3,68401;3
128,09165;49,38083;4,9722e-002;3,68401;3
128,06659;49,38583;4,9701e-002;3,68402;3
128,04141;49,39083;4,9680e-002;3,68403;3
128,01629;49,39583;4,9641e-002;3,68403;3
127,99129;49,40083;4,9620e-002;3,68404;3
127,96624;49,40583;4,9599e-002;3,68405;3
127,94112;49,41083;4,9561e-002;3,68405;3
127,91606;49,41583;4,9522e-002;3,68406;3
127,89100;49,42083;4,9465e-002;3,68407;3
127,86600;49,42583;4,9390e-002;3,68407;3
127,84100;49,43083;4,9333e-002;3,68408;3
127,81600;49,43583;4,9294e-002;3,68408;3
127,79100;49,44083;4,9184e-002;3,68409;3
127,76594;49,44583;4,9163e-002;3,68410;3
127,74094;49,45083;4,9142e-002;3,68410;3
127,71588;49,45583;4,9139e-002;3,68411;3
127,69076;49,46083;4,9154e-002;3,68412;3
127,66571;49,46583;4,9151e-002;3,68412;3
127,64065;49,47083;4,9130e-002;3,68413;3
127,61559;49,47583;4,9127e-002;3,68414;3
127,59053;49,48083;4,9070e-002;3,68414;3
127,56535;49,48583;4,9067e-002;3,68415;3
127,54024;49,49083;4,9064e-002;3,68415;3
127,51524;49,49583;4,9043e-002;3,68416;3
127,49018;49,50083;4,8987e-002;3,68417;3
127,46506;49,50583;4,8966e-002;3,68417;3
127,44006;49,51083;4,8945e-002;3,68418;3
127,41500;49,51583;4,8960e-002;3,68419;3
127,38994;49,52083;4,8957e-002;3,68419;3
127,36500;49,52583;4,8918e-002;3,68420;3
127,34006;49,53083;4,8915e-002;3,68420;3
127,31512;49,53583;4,8894e-002;3,68421;3
127,29018;49,54083;4,8837e-002;3,68422;3
127,26518;49,54583;4,8780e-002;3,68422;3
127,24029;49,55083;4,8724e-002;3,68423;3
127,21535;49,55583;4,8721e-002;3,68424;3
127,19041;49,56083;4,8718e-002;3,68424;3
127,16553;49,56583;4,8697e-002;3,68425;3
127,14065;49,57083;4,8676e-002;3,68425;3
127,11576;49,57583;4,8637e-002;3,68426;3
127,09082;49,58083;4,8598e-002;3,68426;3
127,06594;49,58583;4,8577e-002;3,68427;3
127,04106;49,59083;4,8539e-002;3,68428;3
127,01600;49,59583;4,8518e-002;3,68428;3
126,99106;49,60083;4,8479e-002;3,68429;3
126,96612;49,60583;4,8458e-002;3,68429;3
126,94100;49,61083;4,8311e-002;3,68430;3
126,91594;49,61583;4,8273e-002;3,68431;3
126,89082;49,62083;4,8270e-002;3,68431;3
126,86576;49,62583;4,8213e-002;3,68432;3
126,84071;49,63083;4,8102e-002;3,68432;3
126,81553;49,63583;4,8081e-002;3,68433;3
126,79053;49,64083;4,8042e-002;3,68434;3
126,76541;49,64583;4,8022e-002;3,68434;3
126,74029;49,65083;4,8036e-002;3,68435;3
126,71524;49,65583;4,8016e-002;3,68435;3
126,69006;49,66083;4,7977e-002;3,68436;3
126,66500;49,66583;4,7884e-002;3,68437;3
126,63988;49,67083;4,7809e-002;3,68437;3
126,61482;49,67583;4,7770e-002;3,68438;3
126,58976;49,68083;4,7732e-002;3,68438;3
126,56471;49,68583;4,7729e-002;3,68439;3
126,53965;49,69083;4,7708e-002;3,68439;3
126,51465;49,69583;4,7633e-002;3,68440;3
126,48965;49,70083;4,7558e-002;3,68441;3
126,46471;49,70583;4,7519e-002;3,68441;3
126,43971;49,71083;4,7516e-002;3,68442;3
126,41471;49,71583;4,7531e-002;3,68442;3
126,38976;49,72083;4,7528e-002;3,68443;3
126,36471;49,72583;4,7508e-002;3,68443;3
126,33971;49,73083;4,7487e-002;3,68444;3
126,31471;49,73583;4,7448e-002;3,68445;3
126,28982;49,74083;4,7409e-002;3,68445;3
126,26494;49,74583;4,7406e-002;3,68446;3
126,23994;49,75083;4,7349e-002;3,68446;3
126,21500;49,75583;4,7292e-002;3,68447;3
126,19006;49,76083;4,7236e-002;3,68447;3
126,16512;49,76583;4,7179e-002;3,68448;3
126,14018;49,77083;4,7140e-002;3,68449;3
126,11524;49,77583;4,7083e-002;3,68449;3
126,09024;49,78083;4,7063e-002;3,68450;3
126,06535;49,78583;4,6988e-002;3,68450;3
126,04035;49,79083;4,6931e-002;3,68451;3
126,01541;49,79583;4,6928e-002;3,68451;3
125,99053;49,80083;4,6853e-002;3,68452;3
125,96565;49,80583;4,6832e-002;3,68452;3
125,94071;49,81083;4,6812e-002;3,68453;3
125,91582;49,81583;4,6827e-002;3,68453;3
125,89094;49,82083;4,6841e-002;3,68454;3
125,86588;49,82583;4,6821e-002;3,68454;3
125,84100;49,83083;4,6782e-002;3,68455;3
125,81606;49,83583;4,6743e-002;3,68456;3
125,79106;49,84083;4,6668e-002;3,68456;3
125,76606;49,84583;4,6647e-002;3,68457;3
125,74112;49,85083;4,6609e-002;3,68457;3
125,71618;49,85583;4,6552e-002;3,68458;3
125,69118;49,86083;4,6495e-002;3,68458;3

